time,signal
0.0,1.2559955544670303
0.004001600640256103,1.174294765619325
0.008003201280512205,0.8296921104206519
0.012004801920768308,0.49608925459312314
0.01600640256102441,0.21112546091443649
0.020008003201280513,0.10524160265913438
0.024009603841536616,-0.08749256182971539
0.028011204481792718,-0.18190548840957524
0.03201280512204882,-0.1520279976220281
0.03601440576230493,-0.22851237863192594
0.040016006402561026,-0.24506111858967286
0.044017607042817125,-0.345784449269138
0.04801920768307323,-0.2648631951096483
0.05202080832332934,-0.24184877694290985
0.056022408963585436,-0.20639654685835582
0.060024009603841535,-0.27939607453698545
0.06402561024409764,-0.24768928451341266
0.06802721088435375,-0.1395598973135106
0.07202881152460985,-0.1303934763794996
0.07603041216486595,-0.08248673801252089
0.08003201280512205,-0.12108475156288447
0.08403361344537816,0.04338052790386506
0.08803521408563425,0.05041015666354458
0.09203681472589036,0.020624793605925982
0.09603841536614646,0.031567284341083225
0.10004001600640257,0.11225007075394387
0.10404161664665867,0.055985812684514066
0.10804321728691477,0.06214123858451143
0.11204481792717087,0.06009019033297865
0.11604641856742698,0.13635001866401295
0.12004801920768307,0.1664594222614117
0.12404961984793918,0.05546487930964629
0.12805122048819528,0.07952523221966007
0.13205282112845138,0.1635344390126036
0.1360544217687075,0.20873966398020036
0.1400560224089636,0.18423208564462076
0.1440576230492197,0.13503924349994317
0.1480592236894758,0.2008768889098666
0.1520608243297319,0.24531903733803237
0.156062424969988,0.25814079230913584
0.1600640256102441,0.2500492862115595
0.1640656262505002,0.3130261562715062
0.16806722689075632,0.364550184651222
0.1720688275310124,0.38838834226846247
0.1760704281712685,0.44302893907826413
0.18007202881152462,0.3196682196121454
0.1840736294517807,0.44414874728082654
0.18807523009203683,0.466517244961829
0.19207683073229292,0.4268184467499579
0.19607843137254902,0.3399550717123597
0.20008003201280514,0.5134441441533877
0.20408163265306123,0.4056196161337108
0.20808323329331735,0.4108761173210696
0.21208483393357344,0.36130251165019467
0.21608643457382953,0.5036106104218224
0.22008803521408565,0.4683645240626374
0.22408963585434175,0.4280068787530856
0.22809123649459784,0.2964647695189638
0.23209283713485396,0.2835863352862786
0.23609443777511005,0.4032730700139662
0.24009603841536614,0.30502094150733106
0.24409763905562226,0.27226055144288486
0.24809923969587835,0.27553190080733436
0.25210084033613445,0.3145681789102242
0.25610244097639057,0.3439176445013296
0.2601040416166467,0.226565301412665
0.26410564225690275,0.197658529947243
0.26810724289715887,0.1903012253267232
0.272108843537415,0.3145300696439627
0.27611044417767105,0.1904117068437915
0.2801120448179272,0.17781953136367626
0.2841136454581833,0.14195183678615955
0.2881152460984394,0.17245200506364694
0.2921168467386955,0.07625389680252766
0.2961184473789516,0.13499105482239404
0.3001200480192077,0.18753530542788963
0.3041216486594638,0.25949298746766575
0.3081232492997199,0.09998179899011801
0.312124849939976,0.19014215217273808
0.3161264505802321,0.20295310810361902
0.3201280512204882,0.20312078438501546
0.32412965186074433,0.23740536426254505
0.3281312525010004,0.10386888314205106
0.3321328531412565,0.1090244575223982
0.33613445378151263,0.2455354106570482
0.3401360544217687,0.3077959755742345
0.3441376550620248,0.18480231888418763
0.34813925570228094,0.16785749211831338
0.352140856342537,0.2366575724908328
0.3561424569827931,0.2500046443989459
0.36014405762304924,0.13076895662191632
0.36414565826330536,0.13051662253166052
0.3681472589035614,0.26100822578079685
0.37214885954381755,0.23003461959968438
0.37615046018407367,0.17538630740752134
0.38015206082432973,0.19542534979992982
0.38415366146458585,0.1744060171284887
0.38815526210484197,0.24465101618561585
0.39215686274509803,0.2364294003216544
0.39615846338535415,0.25574412083066633
0.4001600640256103,0.26217620787024704
0.40416166466586634,0.2644837191424941
0.40816326530612246,0.248768154371358
0.4121648659463786,0.13685949055644117
0.4161664665866347,0.21549320783752174
0.42016806722689076,0.23509953305454662
0.4241696678671469,0.18705626982325108
0.428171268507403,0.12603607775244774
0.43217286914765907,0.21398344534446942
0.4361744697879152,0.28566447896305197
0.4401760704281713,0.2906024211768765
0.44417767106842737,0.08410268987924895
0.4481792717086835,0.23082768860325176
0.4521808723489396,0.3104349463688235
0.4561824729891957,0.2509443713001763
0.4601840736294518,0.229973549197653
0.4641856742697079,0.15082404699628274
0.468187274909964,0.251754844169762
0.4721888755502201,0.28674946261206335
0.4761904761904762,0.2927877354511455
0.4801920768307323,0.18564241675105686
0.4841936774709884,0.26589142132378796
0.4881952781112445,0.27954200447358435
0.49219687875150064,0.3284555615225317
0.4961984793917567,0.2594967249766761
0.5002000800320128,0.21985604492841715
0.5042016806722689,0.3239762450815268
0.508203281312525,0.26036737956077666
0.5122048819527811,0.1425051759193155
0.5162064825930373,0.27599175519560426
0.5202080832332934,0.2657656068007253
0.5242096838735495,0.15886136354758534
0.5282112845138055,0.19497319095255464
0.5322128851540616,0.21716683659083227
0.5362144857943177,0.23455265896090524
0.5402160864345739,0.3470720259294185
0.54421768707483,0.18750132909742806
0.5482192877150861,0.22998425630279773
0.5522208883553421,0.2825477081975716
0.5562224889955982,0.27319955557232506
0.5602240896358543,0.26783256263517435
0.5642256902761105,0.280239679425922
0.5682272909163666,0.2797135580167481
0.5722288915566227,0.3486981986312845
0.5762304921968788,0.1660209448247411
0.5802320928371348,0.2088616855497931
0.584233693477391,0.2377233994023268
0.5882352941176471,0.2878705895606726
0.5922368947579032,0.2778201466979791
0.5962384953981593,0.27342881665115415
0.6002400960384154,0.22305826197393597
0.6042416966786714,0.25171703392715705
0.6082432973189276,0.24376031022022818
0.6122448979591837,0.19710612513002884
0.6162464985994398,0.2421601800873313
0.6202480992396959,0.39266887303011017
0.624249699879952,0.30025702138349036
0.6282513005202081,0.19031848222526257
0.6322529011604642,0.3062723964342446
0.6362545018007203,0.3488787587127159
0.6402561024409764,0.2767658837209149
0.6442577030812325,0.24136938721470685
0.6482593037214887,0.1689598014530002
0.6522609043617448,0.27495595615250396
0.6562625050020008,0.3130508628364841
0.6602641056422569,0.2669257366893516
0.664265706282513,0.3058311880883535
0.6682673069227691,0.27975000685584306
0.6722689075630253,0.2713982824413405
0.6762705082032814,0.3322011994459281
0.6802721088435374,0.3524630767089728
0.6842737094837935,0.2965246044003575
0.6882753101240496,0.27886907639074726
0.6922769107643058,0.3213892240904588
0.6962785114045619,0.3113739215717665
0.700280112044818,0.30175212676852464
0.704281712685074,0.32300941636589187
0.7082833133253301,0.32830893772855524
0.7122849139655862,0.23971226061608447
0.7162865146058424,0.3681784852302578
0.7202881152460985,0.3028426552182667
0.7242897158863546,0.261194504351527
0.7282913165266107,0.2767993125507388
0.7322929171668667,0.2736550549825685
0.7362945178071229,0.30096691636064277
0.740296118447379,0.29186778198492713
0.7442977190876351,0.2292918027363391
0.7482993197278912,0.3321592450413703
0.7523009203681473,0.32850634912837934
0.7563025210084033,0.34028989230769513
0.7603041216486595,0.2953919145760427
0.7643057222889156,0.22521751033841728
0.7683073229291717,0.2817402284056395
0.7723089235694278,0.3922681640545329
0.7763105242096839,0.18219711143018788
0.7803121248499401,0.30118156229945525
0.7843137254901961,0.3273703834824987
0.7883153261304522,0.4843249673983619
0.7923169267707083,0.24985100197606858
0.7963185274109644,0.2425712879064035
0.8003201280512205,0.34026350003561606
0.8043217286914767,0.34804936702588524
0.8083233293317327,0.32586858991729284
0.8123249299719888,0.3748383438848219
0.8163265306122449,0.5958356866267254
0.820328131252501,0.93400061760514
0.8243297318927572,1.1176340308063504
0.8283313325330133,1.3586026537244598
0.8323329331732694,1.389453320134709
0.8363345338135254,1.4528858725731637
0.8403361344537815,1.2713150001091629
0.8443377350940376,0.7478556227382313
0.8483393357342938,0.5487394937234039
0.8523409363745499,0.31554513578533006
0.856342537014806,0.34586140484631267
0.860344137655062,0.08054988050146708
0.8643457382953181,0.07914403698170959
0.8683473389355743,0.16321759341595724
0.8723489395758304,0.10214378575176303
0.8763505402160865,0.05232983955070662
0.8803521408563426,0.0022647183514796915
0.8843537414965986,0.0004947368431317892
0.8883553421368547,0.09977909239324571
0.8923569427771109,0.011830944065709337
0.896358543417367,-0.005200427592841506
0.9003601440576231,0.08806222871016944
0.9043617446978792,0.183086629373227
0.9083633453381353,0.18144126769696445
0.9123649459783914,0.18955657164159817
0.9163665466186475,0.18031345111205296
0.9203681472589036,0.33825219173292975
0.9243697478991597,0.36851225347464034
0.9283713485394158,0.226774510307928
0.932372949179672,0.3097244425853062
0.936374549819928,0.3391737800556107
0.9403761504601841,0.31326299673337255
0.9443777511004402,0.2174570480726475
0.9483793517406963,0.3157112675855236
0.9523809523809524,0.3888545087409542
0.9563825530212086,0.3527641470279948
0.9603841536614646,0.3763764452471107
0.9643857543017207,0.2704877574848177
0.9683873549419768,0.4222335750038705
0.9723889555822329,0.3069510105468173
0.976390556222489,0.40638580703569144
0.9803921568627452,0.41223194542461533
0.9843937575030013,0.4106200370483528
0.9883953581432573,0.4640569951993603
0.9923969587835134,0.4242108173469881
0.9963985594237695,0.37861044769664276
1.0004001600640255,0.4075984675998134
1.0044017607042817,0.48854538933777414
1.0084033613445378,0.5928175474065311
1.012404961984794,0.512045064428805
1.01640656262505,0.5124456598808251
1.0204081632653061,0.6955005954264636
1.0244097639055623,0.5459475669063675
1.0284113645458184,0.5327086438364965
1.0324129651860745,0.5208230550598171
1.0364145658263306,0.7160762306333186
1.0404161664665867,0.634621368036534
1.0444177671068429,0.5056401831127234
1.048419367747099,0.5767550789785162
1.0524209683873549,0.5778200704620882
1.056422569027611,0.4875242316613025
1.0604241696678671,0.47336246049604064
1.0644257703081232,0.519822669807864
1.0684273709483794,0.5209197427302417
1.0724289715886355,0.517698899467523
1.0764305722288916,0.38859403627637423
1.0804321728691477,0.27968578076989603
1.0844337735094038,0.4708567411996694
1.08843537414966,0.4588165121588724
1.092436974789916,0.39056665349929265
1.0964385754301722,0.1329782235421316
1.1004401760704283,0.30899404304944544
1.1044417767106842,0.4142480061700311
1.1084433773509403,0.360236172776436
1.1124449779911965,0.20948038875978695
1.1164465786314526,0.3444511022422421
1.1204481792717087,0.3538791542826705
1.1244497799119648,0.33736757963347963
1.128451380552221,0.2006603986692239
1.132452981192477,0.21019651353544944
1.1364545818327332,0.25025693986594577
1.1404561824729893,0.2487644198334118
1.1444577831132454,0.26542800769726493
1.1484593837535015,0.19513616704036452
1.1524609843937577,0.29199911603453926
1.1564625850340136,0.3127945075545008
1.1604641856742697,0.2626918080335098
1.1644657863145258,0.31161352859198876
1.168467386954782,0.3459487727048069
1.172468987595038,0.2939012106587192
1.1764705882352942,0.27261621230337657
1.1804721888755503,0.1712902106373461
1.1844737895158064,0.23298668308852935
1.1884753901560625,0.24721298786313006
1.1924769907963186,0.17262844574904868
1.1964785914365748,0.18101099227904655
1.2004801920768309,0.2733012354853719
1.2044817927170868,0.29350261874674705
1.208483393357343,0.16161161596527768
1.212484993997599,0.2744691358115148
1.2164865946378551,0.2511543561314582
1.2204881952781113,0.2057270776420829
1.2244897959183674,0.21591091074729543
1.2284913965586235,0.04577099001530985
1.2324929971988796,0.04737431252808424
1.2364945978391357,0.370784721942741
1.2404961984793919,0.2803844218378114
1.244497799119648,0.25205251575788823
1.248499399759904,0.2947527103572356
1.2525010004001602,0.2586601590803724
1.2565026010404161,0.257623802681305
1.2605042016806722,0.07431342081561965
1.2645058023209284,0.06407501473958604
1.2685074029611845,0.1539516231606422
1.2725090036014406,0.2621718237346482
1.2765106042416967,0.23543961139371922
1.2805122048819528,0.16615451082830276
1.284513805522209,0.20008957713233858
1.288515406162465,0.21979351512003195
1.2925170068027212,0.15845404338015792
1.2965186074429773,0.10436092084665671
1.3005202080832334,0.12225346509653824
1.3045218087234896,0.297483008751812
1.3085234093637454,0.1548482072640908
1.3125250100040016,0.1440037761098209
1.3165266106442577,0.08324317710180028
1.3205282112845138,0.20540525523736103
1.32452981192477,0.18051808696988494
1.328531412565026,0.06074989200329447
1.3325330132052822,0.13249523311612663
1.3365346138455383,0.25001939651100696
1.3405362144857944,0.2716761985623825
1.3445378151260505,0.08828177992577599
1.3485394157663066,0.21215702762034855
1.3525410164065628,0.2906555683516574
1.3565426170468189,0.23259642873218672
1.3605442176870748,0.06537425084628505
1.364545818327331,0.057786844884180955
1.368547418967587,0.16484673042893824
1.3725490196078431,0.2236562317866543
1.3765506202480993,0.22893451015645933
1.3805522208883554,0.18229273518654757
1.3845538215286115,0.13675113211304898
1.3885554221688676,0.19030425667356754
1.3925570228091237,0.17124484660558384
1.3965586234493799,0.07170463252087943
1.400560224089636,0.07266971639387342
1.404561824729892,0.16635528830099316
1.408563425370148,0.11310719379316281
1.4125650260104041,0.11416562585852932
1.4165666266506602,0.1240575785546883
1.4205682272909164,0.22240545340223108
1.4245698279311725,0.14609461927208572
1.4285714285714286,0.11669205578260934
1.4325730292116847,0.1208141490001097
1.4365746298519408,0.24632257626134288
1.440576230492197,0.1573646061756383
1.444577831132453,0.14389892405486904
1.4485794317727092,0.05313390347616788
1.4525810324129653,0.14195687488178368
1.4565826330532214,0.08993273130501603
1.4605842336934773,0.03758454699371951
1.4645858343337335,0.12973247946777508
1.4685874349739896,0.1632351493316937
1.4725890356142457,0.13432796536542554
1.4765906362545018,0.13482373543514165
1.480592236894758,0.0869399111018743
1.484593837535014,0.06613674803750592
1.4885954381752702,0.15725851605986146
1.4925970388155263,0.01508707114926548
1.4965986394557824,0.03736428925131804
1.5006002400960385,0.12882213474664547
1.5046018407362947,0.18544688826163871
1.5086034413765508,0.028047032363952555
1.5126050420168067,0.031935286582218725
1.5166066426570628,0.07021369276149945
1.520608243297319,0.1543086856451265
1.524609843937575,0.11720113063009457
1.5286114445778312,0.046276049265738146
1.5326130452180873,0.05260606846370743
1.5366146458583434,0.09057983384367974
1.5406162464985995,0.18611949007630377
1.5446178471388556,0.10464340150361587
1.5486194477791118,0.09730653213383553
1.5526210484193679,0.11624247395508569
1.556622649059624,0.19509399749117673
1.5606242496998801,0.06387374957899478
1.564625850340136,-0.0190004583330564
1.5686274509803921,0.07161101628787853
1.5726290516206483,0.1236247396862177
1.5766306522609044,-0.022616769538941886
1.5806322529011605,0.048314903416844995
1.5846338535414166,0.10852333091870847
1.5886354541816727,0.21201318019433085
1.5926370548219289,0.05816415137546266
1.596638655462185,-0.03129590062583868
1.600640256102441,0.03376227938851364
1.6046418567426972,0.13063411328362406
1.6086434573829533,0.007327173498449493
1.6126450580232095,-0.04171597132070962
1.6166466586634654,-0.0031106787319300153
1.6206482593037215,0.06737869627506661
1.6246498599439776,0.045490781488446194
1.6286514605842337,0.033008928658451946
1.6326530612244898,0.017939179165529395
1.636654661864746,0.05277590526493788
1.640656262505002,0.04881206545251318
1.6446578631452582,0.206733173760689
1.6486594637855143,0.31865095659203524
1.6526610644257704,0.7026167179077903
1.6566626650660266,0.9648287983749031
1.6606642657062827,1.0333728949622225
1.6646658663465388,1.133081855300444
1.6686674669867947,1.0412085828600068
1.6726690676270508,0.9159663077408009
1.676670668267307,0.5195562759828531
1.680672268907563,0.22577901336143497
1.6846738695478192,0.0865128439560154
1.6886754701880753,-0.09449097933964803
1.6926770708283314,-0.18213597621156455
1.6966786714685875,-0.1887871174871979
1.7006802721088436,-0.27996918945696436
1.7046818727490998,-0.1895480440174808
1.708683473389356,-0.24418523230064731
1.712685074029612,-0.35731372737422107
1.716686674669868,-0.30765373594324896
1.720688275310124,-0.22570599925602122
1.7246898759503801,-0.33564313501232446
1.7286914765906363,-0.4069698348717166
1.7326930772308924,-0.31858207638845726
1.7366946778711485,-0.2418575026896645
1.7406962785114046,-0.10607208666983443
1.7446978791516607,-0.15947510291998643
1.7486994797919169,-0.12276390984179449
1.752701080432173,-0.03441497864971259
1.756702681072429,-0.052700951720046275
1.7607042817126852,-0.11456664880319331
1.7647058823529413,-0.15909175014236487
1.7687074829931972,-0.058278195138876325
1.7727090836334534,-0.05617371794643641
1.7767106842737095,-0.15164844616912043
1.7807122849139656,-0.10090598561987138
1.7847138855542217,-0.02465902748170077
1.7887154861944778,0.055326047155008155
1.792717086834734,-0.017168866053340608
1.79671868747499,-0.05739141556377082
1.8007202881152462,0.07835212620073151
1.8047218887555023,0.09958429688386222
1.8087234893957584,0.010189261116750174
1.8127250900360146,0.03939266674340719
1.8167266906762707,0.031618973609304706
1.8207282913165266,0.13916340040777211
1.8247298919567827,0.08651246837403632
1.8287314925970388,0.07334405321812454
1.832733093237295,0.037736464626976315
1.836734693877551,0.15826453631934956
1.8407362945178072,0.2398131914733294
1.8447378951580633,0.17426627945015916
1.8487394957983194,0.14217248689584133
1.8527410964385755,0.1375558501263912
1.8567426970788317,0.12720292124077237
1.8607442977190878,0.12323816393489502
1.864745898359344,0.18428128750774803
1.8687474989996,0.23289031733213122
1.872749099639856,0.27983900261941824
1.876750700280112,0.19795176203992473
1.8807523009203682,0.13109316262563858
1.8847539015606243,0.06812918382976915
1.8887555022008804,0.15393492385889823
1.8927571028411365,0.2014563049862291
1.8967587034813926,0.09813250651133718
1.9007603041216488,0.11305953755219035
1.9047619047619049,0.06989052946931115
1.908763505402161,0.0022897571016076874
1.9127651060424171,-0.04657974591151138
1.9167667066826732,0.013564050208658284
1.9207683073229291,0.13245662889528625
1.9247699079631853,-0.024885318925725167
1.9287715086034414,-0.07637395733641267
1.9327731092436975,-0.05057545364681423
1.9367747098839536,-0.11177193220647769
1.9407763105242097,-0.1502469232487389
1.9447779111644659,-0.12963369421752968
1.948779511804722,-0.10158090090295233
1.952781112444978,-0.026812617884715263
1.9567827130852342,-0.14065750451750642
1.9607843137254903,-0.23848125386406685
1.9647859143657465,-0.2230904010519789
1.9687875150060026,-0.14190506046002346
1.9727891156462585,-0.0968249193030647
1.9767907162865146,-0.1459584334888578
1.9807923169267707,-0.2142737124351623
1.9847939175670268,-0.1570229871615723
1.988795518207283,-0.1374776336738939
1.992797118847539,-0.1832482677249994
1.9967987194877952,-0.1545447307650631
2.000800320128051,-0.15434965576005397
2.0048019207683074,-0.15444915692443045
2.0088035214085633,-0.1348914725383934
2.0128051220488197,-0.33108941018910976
2.0168067226890756,-0.27390583631343784
2.020808323329332,-0.06860487313177104
2.024809923969588,-0.19245503843252648
2.028811524609844,-0.247744662709237
2.0328131252501,-0.2599888505555777
2.0368147258903564,-0.2913382556047557
2.0408163265306123,-0.12615525362999164
2.0448179271708686,-0.23934376935883178
2.0488195278111245,-0.1870869506826455
2.0528211284513804,-0.16712011252317663
2.0568227290916368,-0.11999266888959786
2.0608243297318927,-0.241979066683739
2.064825930372149,-0.26110432351203994
2.068827531012405,-0.22097262168706233
2.0728291316526612,-0.1937032079434418
2.076830732292917,-0.25506211299906134
2.0808323329331735,-0.2371173722631946
2.0848339335734294,-0.28465430109855505
2.0888355342136857,-0.14447872537777257
2.0928371348539416,-0.28169691764735827
2.096838735494198,-0.341772902153492
2.100840336134454,-0.1899883708750663
2.1048419367747098,-0.21667088537293946
2.108843537414966,-0.14864579831774574
2.112845138055222,-0.17960141598471197
2.1168467386954783,-0.2584655994199968
2.1208483393357342,-0.13133821123466796
2.1248499399759906,-0.2809535569024531
2.1288515406162465,-0.2673484346533433
2.132853141256503,-0.228287536779623
2.1368547418967587,-0.1753368467590987
2.140856342537015,-0.13730079017351945
2.144857943177271,-0.3493574311823698
2.1488595438175273,-0.33709815380260866
2.152861144457783,-0.17288510216817543
2.156862745098039,-0.24570403798363932
2.1608643457382954,-0.33468657635944454
2.1648659463785513,-0.31275953143414226
2.1688675470188077,-0.07584707500522511
2.1728691476590636,-0.2336388759121113
2.17687074829932,-0.30782889592190277
2.180872348939576,-0.3122609300142726
2.184873949579832,-0.30799529023683003
2.188875550220088,-0.21289446357171202
2.1928771508603444,-0.24689003792575692
2.1968787515006003,-0.31858491953957824
2.2008803521408566,-0.26520569286063944
2.2048819527811125,-0.24828225237574394
2.2088835534213684,-0.18741160622547118
2.212885154061625,-0.3169556021475217
2.2168867547018807,-0.3443653740228667
2.220888355342137,-0.1711880716157692
2.224889955982393,-0.16758791500482084
2.2288915566226493,-0.342730683033391
2.232893157262905,-0.23762410447760707
2.2368947579031615,-0.14047929206639528
2.2408963585434174,-0.2375885365541665
2.2448979591836737,-0.22808496449074217
2.2488995598239296,-0.34516480555897877
2.252901160464186,-0.2925636953343307
2.256902761104442,-0.13236725448091594
2.2609043617446978,-0.38399351506164936
2.264905962384954,-0.2497982370407541
2.26890756302521,-0.3181709045595754
2.2729091636654664,-0.13174885537911082
2.2769107643057223,-0.320143229199843
2.2809123649459786,-0.3642104628222239
2.2849139655862345,-0.25223022559314484
2.288915566226491,-0.22918438806566166
2.2929171668667467,-0.2778484014011061
2.296918767507003,-0.3429145335031366
2.300920368147259,-0.29767671168977594
2.3049219687875153,-0.22745572854267915
2.308923569427771,-0.21994519520905798
2.312925170068027,-0.3103520532876542
2.3169267707082835,-0.27700637125042477
2.3209283713485394,-0.26032093803442846
2.3249299719887957,-0.2884603179894385
2.3289315726290516,-0.38773426485045814
2.332933173269308,-0.25903724533871664
2.336934773909564,-0.26318665508495775
2.34093637454982,-0.28340925804060396
2.344937975190076,-0.32000985192349846
2.3489395758303324,-0.24550411061317223
2.3529411764705883,-0.3032548400983873
2.356942777110844,-0.24679890242638455
2.3609443777511006,-0.33103911601402175
2.3649459783913565,-0.33837736189152806
2.368947579031613,-0.31681781166535256
2.3729491796718687,-0.24720795765451664
2.376950780312125,-0.4550634838879238
2.380952380952381,-0.3303492746032032
2.3849539815926373,-0.3191547344450983
2.388955582232893,-0.32851837427710445
2.3929571828731495,-0.3262690755197403
2.3969587835134054,-0.2957058383157519
2.4009603841536618,-0.21812062954610617
2.4049619847939177,-0.2061233677537556
2.4089635854341735,-0.21972573365116724
2.41296518607443,-0.3552885646482336
2.416966786714686,-0.29506857379201845
2.420968387354942,-0.26569160609251574
2.424969987995198,-0.21362960091965125
2.4289715886354544,-0.326957339543564
2.4329731892757103,-0.35506570203688914
2.4369747899159666,-0.195960492103405
2.4409763905562225,-0.26588157469024926
2.444977991196479,-0.35879964898953703
2.4489795918367347,-0.340557683428954
2.452981192476991,-0.3105022801824156
2.456982793117247,-0.2446178167482027
2.460984393757503,-0.344064043935151
2.4649859943977592,-0.28176981978583077
2.468987595038015,-0.15877968021883065
2.4729891956782715,-0.18354401447752824
2.4769907963185274,-0.15230030268501302
2.4809923969587837,0.03445886515370195
2.4849939975990396,0.31997858498015486
2.488995598239296,0.6072864176211
2.492997198879552,0.7865634379020912
2.496998799519808,0.79469806095263
2.501000400160064,0.8160700733229234
2.5050020008003204,0.5893089554973788
2.5090036014405763,0.26261925763470034
2.5130052020808322,-0.03157135441979853
2.5170068027210886,-0.34522086760104326
2.5210084033613445,-0.33595148887134474
2.525010004001601,-0.4780309476576027
2.5290116046418567,-0.5480715568127166
2.533013205282113,-0.5075277440122302
2.537014805922369,-0.5713459841826918
2.5410164065626253,-0.45143724779450595
2.545018007202881,-0.6645944571594615
2.5490196078431375,-0.6092249458120623
2.5530212084833934,-0.5847823844797754
2.5570228091236498,-0.6038034310918019
2.5610244097639057,-0.6657106965166641
2.5650260104041616,-0.48547004696105256
2.569027611044418,-0.4804027249015109
2.573029211684674,-0.4077527401141956
2.57703081232493,-0.420572479705069
2.581032412965186,-0.43704293448323717
2.5850340136054424,-0.3440648059449337
2.5890356142456983,-0.18888180128595322
2.5930372148859546,-0.2789630672606628
2.5970388155262105,-0.3920996562966952
2.601040416166467,-0.2277617521735524
2.6050420168067228,-0.2611180699670747
2.609043617446979,-0.22872252085202177
2.613045218087235,-0.18570308493526666
2.617046818727491,-0.24977939488232703
2.6210484193677472,-0.14835660625535355
2.625050020008003,-0.320151556078817
2.6290516206482595,-0.3230913051682269
2.6330532212885154,-0.2764805623555098
2.6370548219287717,-0.13653021295656848
2.6410564225690276,-0.08163133808893185
2.645058023209284,-0.13008710941515028
2.64905962384954,-0.18734867261307034
2.653061224489796,-0.12329837457828442
2.657062825130052,-0.03637697264058114
2.6610644257703084,-0.12829458145553624
2.6650660264105643,-0.15983043662202978
2.6690676270508202,-0.12025998954366075
2.6730692276910766,-0.012096251080545559
2.6770708283313325,-0.02065128424824732
2.681072428971589,-0.11351328277305875
2.6850740296118447,0.04453513619296154
2.689075630252101,0.011246368892245541
2.693077230892357,-0.03359647780850993
2.6970788315326133,-0.008650246154075836
2.701080432172869,0.06925891491730829
2.7050820328131255,0.007808608026972821
2.7090836334533814,0.06972684954110826
2.7130852340936378,-0.07951432375806876
2.7170868347338937,-0.02312700367479619
2.7210884353741496,0.016009595737195202
2.725090036014406,-0.010322960007516455
2.729091636654662,-0.05456633169622639
2.733093237294918,-0.07967260322369704
2.737094837935174,-0.02523659298205376
2.7410964385754304,-0.11419915812841415
2.7450980392156863,-0.12175094564978621
2.7490996398559426,-0.16406101028276085
2.7531012404961985,-0.07183960003249129
2.757102841136455,-0.2386257003597408
2.7611044417767108,-0.19691986489796656
2.765106042416967,-0.20472684150442522
2.769107643057223,-0.22155444102178426
2.773109243697479,-0.14551736427565784
2.7771108443377353,-0.24667283694529019
2.781112444977991,-0.2608007243652064
2.7851140456182475,-0.25460148994140575
2.7891156462585034,-0.1450490197301296
2.7931172468987597,-0.12396843556602742
2.7971188475390156,-0.34268280350721353
2.801120448179272,-0.3230830231588449
2.805122048819528,-0.1221935264737566
2.809123649459784,-0.289309585879176
2.81312525010004,-0.2807717178721906
2.817126850740296,-0.2399599679065545
2.8211284513805523,-0.24360768976763283
2.8251300520208082,-0.27261278725789795
2.8291316526610646,-0.3046224965399717
2.8331332533013205,-0.24750146125226596
2.837134853941577,-0.10963700923643979
2.8411364545818327,-0.14937541266177182
2.845138055222089,-0.25092965134875705
2.849139655862345,-0.1463785797650315
2.8531412565026013,-0.26487814336370313
2.857142857142857,-0.22354518992828956
2.8611444577831135,-0.363373651640313
2.8651460584233694,-0.29589697604586995
2.8691476590636253,-0.13899351488776765
2.8731492597038817,-0.19116160733556767
2.8771508603441376,-0.21435501569093604
2.881152460984394,-0.26844703166884115
2.88515406162465,-0.13076694649406284
2.889155662264906,-0.1364074056762728
2.893157262905162,-0.18873763890994924
2.8971588635454184,-0.322114879182206
2.9011604641856743,-0.15075075550972206
2.9051620648259306,-0.13778254151506353
2.9091636654661865,-0.20131343248706968
2.913165266106443,-0.2462691975101656
2.917166866746699,-0.161693625119441
2.9211684673869547,-0.19387867284487562
2.925170068027211,-0.17588543288718894
2.929171668667467,-0.3134680322679539
2.9331732693077233,-0.27531426431873246
2.937174869947979,-0.15991376378755084
2.9411764705882355,-0.1607342568268791
2.9451780712284914,-0.13233614793738976
2.9491796718687477,-0.19706369999007955
2.9531812725090036,-0.17146199776959536
2.95718287314926,-0.2284764271171999
2.961184473789516,-0.13741752403091326
2.9651860744297722,-0.2655598838553721
2.969187675070028,-0.20489947613324738
2.973189275710284,-0.13347756842833147
2.9771908763505404,-0.22138926603083575
2.9811924769907963,-0.1963050398868509
2.9851940776310526,-0.1954645735949032
2.9891956782713085,-0.20625902468769608
2.993197278911565,-0.1769415422281912
2.9971988795518207,-0.30169055976788534
3.001200480192077,-0.15626283751514328
3.005202080832333,-0.0294804466616084
3.0092036814725893,-0.16406922520183803
3.013205282112845,-0.21499390390219036
3.0172068827531016,-0.09049937542676645
3.0212084833933575,-0.1293105338065322
3.0252100840336134,-0.1591273257308924
3.0292116846738697,-0.197374608691547
3.0332132853141256,-0.27940994595696106
3.037214885954382,-0.0901719582497495
3.041216486594638,-0.07849207475298228
3.045218087234894,-0.18852796996149646
3.04921968787515,-0.24721739118379335
3.0532212885154064,-0.14767529123954498
3.0572228891556623,-0.060425865052122725
3.0612244897959187,-0.17475529640744164
3.0652260904361746,-0.14673247836793274
3.069227691076431,-0.036688709957972146
3.073229291716687,-0.06286039828797399
3.0772308923569427,-0.16152071447619812
3.081232492997199,-0.27101559876936365
3.085234093637455,-0.1691651558550218
3.0892356942777113,-0.058444707407722715
3.093237294917967,-0.14571190129056288
3.0972388955582235,-0.16475387391073554
3.1012404961984794,-0.07282316613832006
3.1052420968387358,-0.10815544076098543
3.1092436974789917,-0.1411283461311784
3.113245298119248,-0.12085369768577103
3.117246898759504,-0.14334892755152642
3.1212484993997602,-0.020221840973140337
3.125250100040016,-0.10995961312894421
3.129251700680272,-0.1318987281685642
3.1332533013205284,-0.1351155688437431
3.1372549019607843,-0.10149143300710166
3.1412565026010406,-0.11477579632691326
3.1452581032412965,-0.13311798991287974
3.149259703881553,-0.16231923574235663
3.1532613045218087,-0.009003453058287689
3.157262905162065,0.09553601526883636
3.161264505802321,-0.22283147562677907
3.1652661064425773,-0.07047178805838164
3.1692677070828332,0.024849793107692992
3.1732693077230896,-0.16355774114227298
3.1772709083633455,-0.13008977929532703
3.1812725090036014,-0.08223569541686421
3.1852741096438577,-0.0830213092812223
3.1892757102841136,-0.14831900729314276
3.19327731092437,-0.103407219634568
3.197278911564626,-0.10336479362866013
3.201280512204882,-0.03238970862633402
3.205282112845138,0.030250918970328285
3.2092837134853944,-0.09736562680397766
3.2132853141256503,-0.037306923080424485
3.2172869147659067,-0.14046101664403554
3.2212885154061626,-0.07924953977336675
3.225290116046419,0.02573037342277418
3.229291716686675,-0.009342992604084284
3.2332933173269307,-0.09467127413249815
3.237294917967187,-0.06661498855691038
3.241296518607443,-0.013140397499394975
3.2452981192476993,-0.08504542458826322
3.249299719887955,-0.02058392083913986
3.2533013205282115,-0.015860687314160585
3.2573029211684674,-0.04691238041889477
3.2613045218087238,-0.07056566237815555
3.2653061224489797,-0.004920053457285439
3.269307723089236,-0.0018328944051466817
3.273309323729492,0.01860099191285653
3.2773109243697482,-0.10177225635631483
3.281312525010004,-0.016627825231505747
3.28531412565026,0.01409064555350655
3.2893157262905164,0.05940024788222533
3.2933173269307723,0.03012945197856664
3.2973189275710286,-0.10231750784195362
3.3013205282112845,-0.0052105935914736265
3.305322128851541,0.11839673552829802
3.3093237294917968,0.20342590724742837
3.313325330132053,0.3204802692484458
3.317326930772309,0.5733628818496214
3.3213285314125653,0.9070259902281643
3.3253301320528212,1.130647401588896
3.3293317326930776,1.0657166881833389
3.3333333333333335,1.0363624099169146
3.3373349339735894,0.8692639914751052
3.3413365346138457,0.49072421133557875
3.3453381352541016,0.19943104471954287
3.349339735894358,-0.008380564565672648
3.353341336534614,-0.0810811646477449
3.35734293717487,-0.1118525262736608
3.361344537815126,-0.2724691137149616
3.3653461384553824,-0.2767787688622441
3.3693477390956383,-0.1835581206329025
3.3733493397358947,-0.2036122208307504
3.3773509403761506,-0.2235769131309573
3.3813525410164065,-0.3008386178094036
3.385354141656663,-0.3751591089521606
3.3893557422969187,-0.25626432672281296
3.393357342937175,-0.20387394653870491
3.397358943577431,-0.25168323001382026
3.4013605442176873,-0.09793019345834142
3.405362144857943,0.04202386200685309
3.4093637454981995,-0.06390027830784703
3.4133653461384554,-0.09732476829109507
3.417366946778712,-0.07076029191791869
3.4213685474189677,0.024757842248472217
3.425370148059224,0.09662737693176196
3.42937174869948,0.07642255434710868
3.433373349339736,0.05662369610843995
3.437374949979992,0.14011388233689
3.441376550620248,0.07168275407269999
3.4453781512605044,0.05479879766247554
3.4493797519007603,0.12923474362566245
3.4533813525410166,0.19209346307916753
3.4573829531812725,0.1939369375252763
3.461384553821529,0.08077018231846969
3.4653861544617848,0.24291323979756985
3.469387755102041,0.32585477846473504
3.473389355742297,0.23171829772763497
3.4773909563825534,0.2424543465087074
3.4813925570228093,0.18801865560481335
3.485394157663065,0.3554007671808775
3.4893957583033215,0.3028004119497646
3.4933973589435774,0.2525479671504114
3.4973989595838337,0.3249757139646152
3.5014005602240896,0.39410451793464596
3.505402160864346,0.3330166834317727
3.509403761504602,0.43217932573536033
3.513405362144858,0.41097050750694364
3.517406962785114,0.3932787412733263
3.5214085634253705,0.44531143537388446
3.5254101640656264,0.38489714800318403
3.5294117647058827,0.3229652997963274
3.5334133653461386,0.5327696197086039
3.5374149659863945,0.35101343212392067
3.541416566626651,0.4514395385599633
3.5454181672669067,0.3386212507071307
3.549419767907163,0.44883254092467745
3.553421368547419,0.36625059408914595
3.5574229691876753,0.3019007351468208
3.561424569827931,0.35680199182761874
3.5654261704681876,0.299202080915956
3.5694277711084434,0.4360454812388749
3.5734293717487,0.31758577467837523
3.5774309723889557,0.27995561019792187
3.581432573029212,0.15966847076678112
3.585434173669468,0.29527070049201565
3.589435774309724,0.24176700996503986
3.59343737494998,0.1547638017487564
3.597438975590236,0.18408506305577038
3.6014405762304924,0.2030774106703195
3.6054421768707483,0.28388982980211563
3.6094437775110046,0.2716973660854242
3.6134453781512605,0.10355774721228721
3.617446978791517,0.20563599280000794
3.621448579431773,0.23748282939719784
3.625450180072029,0.24112594405443386
3.629451780712285,0.141764981411725
3.6334533813525414,0.1745992934156107
3.6374549819927973,0.22263558141281709
3.641456582633053,0.19209574827565018
3.6454581832733095,0.13983715801187963
3.6494597839135654,0.07858823299538362
3.6534613845538217,0.23452584406765312
3.6574629851940776,0.29350092816484974
3.661464585834334,0.1393075303347428
3.66546618647459,0.12536640313194772
3.6694677871148462,0.24016708621135216
3.673469387755102,0.2625042557144528
3.6774709883953585,0.09914721230637401
3.6814725890356144,0.23155699303370647
3.6854741896758707,0.19543398122611302
3.6894757903161266,0.20706121244899406
3.6934773909563825,0.20746875935733053
3.697478991596639,0.13614542527075169
3.7014805922368947,0.19065599353213158
3.705482192877151,0.27986426552917276
3.709483793517407,0.16998168724405197
3.7134853941576633,0.16628353361693865
3.717486994797919,0.17214057950178405
3.7214885954381756,0.36278107406504856
3.7254901960784315,0.23748884188881453
3.729491796718688,0.19046396523800058
3.7334933973589437,0.13859112608194948
3.7374949979992,0.2698651271247182
3.741496598639456,0.3281043228420092
3.745498199279712,0.1080472079084653
3.749499799919968,0.2717540471799706
3.753501400560224,0.23654584069804274
3.7575030012004804,0.2796608846021658
3.7615046018407363,0.09406373515990267
3.7655062024809927,0.15024568076833134
3.7695078031212486,0.24277923771524615
3.773509403761505,0.25753245531732827
3.777511004401761,0.24032690392598252
3.781512605042017,0.15908550156158918
3.785514205682273,0.14092957603947592
3.7895158063225294,0.22573072370409084
3.7935174069627853,0.22751707276009664
3.797519007603041,0.1825035418537013
3.8015206082432975,0.23184652025770414
3.8055222088835534,0.19108087378280378
3.8095238095238098,0.35506407355919767
3.8135254101640657,0.23645702723497725
3.817527010804322,0.24014475456478676
3.821528611444578,0.2274199940743261
3.8255302120848342,0.19081552121810275
3.82953181272509,0.21050292427868333
3.8335334133653465,0.2736284957540251
3.8375350140056024,0.30555952798088337
3.8415366146458583,0.26762082827940004
3.8455382152861146,0.21748698160632793
3.8495398159263705,0.20695309537169432
3.853541416566627,0.3469665442097427
3.8575430172068828,0.2949693076051277
3.861544617847139,0.21789176687825593
3.865546218487395,0.23899220604790228
3.8695478191276513,0.21037958853996613
3.8735494197679072,0.3753091653824399
3.8775510204081636,0.2267822859287903
3.8815526210484195,0.1166749448705855
3.885554221688676,0.2869444151728269
3.8895558223289317,0.33366450468853903
3.8935574229691876,0.2617326965961043
3.897559023609444,0.17145078997836824
3.9015606242497,0.2225237507250751
3.905562224889956,0.2913464601152741
3.909563825530212,0.3217625336643315
3.9135654261704684,0.13006420650234105
3.9175670268107243,0.3276805876168299
3.9215686274509807,0.24049659554973513
3.9255702280912366,0.260294417008123
3.929571828731493,0.20277232406971346
3.933573429371749,0.30278437063843944
3.937575030012005,0.24467084560006183
3.941576630652261,0.2559782572781035
3.945578231292517,0.1681006138765042
3.9495798319327733,0.2712047267250936
3.953581432573029,0.3668928273323051
3.9575830332132855,0.34861779287930506
3.9615846338535414,0.22345443656891337
3.9655862344937978,0.20577496398490067
3.9695878351340537,0.3161516584767966
3.97358943577431,0.3441523947827483
3.977591036414566,0.2880717876078448
3.9815926370548222,0.2508908024263017
3.985594237695078,0.3342615675027686
3.9895958383353345,0.3130343210155018
3.9935974389755904,0.25881437086199305
3.9975990396158463,0.2998398385035696
4.001600640256102,0.2612293914560158
4.0056022408963585,0.33436849823642867
4.009603841536615,0.2926315293542417
4.013605442176871,0.17443116579252443
4.017607042817127,0.24530983065822512
4.021608643457383,0.34082122198045983
4.025610244097639,0.32773703223253253
4.029611844737896,0.19210042343523512
4.033613445378151,0.19515215959600868
4.0376150460184075,0.29897310452392173
4.041616646658664,0.28120296418808677
4.04561824729892,0.24425731961284528
4.049619847939176,0.2906560955651059
4.053621448579432,0.2702565126718993
4.057623049219688,0.32887187739904417
4.061624649859944,0.301529707577192
4.0656262505002,0.20907249701716343
4.069627851140456,0.3207516707295773
4.073629451780713,0.3228161924418408
4.077631052420968,0.3552710244365984
4.081632653061225,0.20999709720706852
4.085634253701481,0.3249714959238735
4.089635854341737,0.29542528056508727
4.093637454981993,0.26676856792984005
4.097639055622249,0.25884690247387676
4.101640656262505,0.2593997571877005
4.105642256902761,0.41781006616815125
4.109643857543017,0.23767349843924987
4.1136454581832735,0.2897087551911667
4.11764705882353,0.2629219151707123
4.121648659463785,0.4411770363532981
4.125650260104042,0.22657672667529558
4.129651860744298,0.2570090961698468
4.133653461384554,0.3372391072953704
4.13765506202481,0.4398647389500178
4.141656662665066,0.5871931479455464
4.1456582633053225,0.5848727869243892
4.149659863945578,0.8842899549355588
4.153661464585834,1.2028876897119514
4.157663065226091,1.485980632173644
4.161664665866347,1.4469995569171048
4.165666266506602,1.385420280838909
4.169667867146859,1.135580743972802
4.173669467787115,0.8386755778939763
4.1776710684273715,0.5432375025377064
4.181672669067627,0.31164298209000707
4.185674269707883,0.2397809938177576
4.18967587034814,0.26556286191538164
4.193677470988396,0.031568229259511985
4.197679071628651,-0.006089864134750732
4.201680672268908,-0.01742152702941399
4.205682272909164,0.10623337833331917
4.2096838735494195,0.05017790422572974
4.213685474189676,-0.029668053182567402
4.217687074829932,-0.057734519334578495
4.221688675470189,0.13212968317887888
4.225690276110444,0.06489630855832244
4.2296918767507,0.035431921507639644
4.233693477390957,0.14554651770046026
4.237695078031213,0.0945743850648198
4.2416966786714685,0.21429284106081725
4.245698279311725,0.26634235541116147
4.249699879951981,0.1981155462263563
4.253701480592237,0.27451079950813007
4.257703081232493,0.32295822722307266
4.261704681872749,0.24548419951758416
4.265706282513006,0.2230553100051254
4.269707883153261,0.3287381871305451
4.2737094837935174,0.3692606559160289
4.277711084433774,0.24903407742762934
4.28171268507403,0.22096033628499168
4.285714285714286,0.2948834929161034
4.289715886354542,0.34037168921301264
4.293717486994798,0.39986050500412756
4.297719087635055,0.2991668668223753
4.30172068827531,0.4763444166386279
4.305722288915566,0.4174483162602237
4.309723889555823,0.42726947218804257
4.313725490196078,0.3297152147324998
4.3177270908363345,0.4817054327964452
4.321728691476591,0.5485973098752159
4.325730292116847,0.5408678117570017
4.329731892757103,0.406383850456247
4.333733493397359,0.46491830570329024
4.337735094037615,0.6460373761429908
4.341736694677872,0.5359339773537585
4.345738295318127,0.47076895267352264
4.3497398959583835,0.5426272827477866
4.35374149659864,0.689549317943198
4.357743097238895,0.6689281288794848
4.361744697879152,0.503435533491172
4.365746298519408,0.5457165418107887
4.369747899159664,0.6207906352211793
4.37374949979992,0.5240254200398056
4.377751100440176,0.5509419891437025
4.3817527010804325,0.5625918721630826
4.385754301720689,0.5211159039760167
4.389755902360944,0.5908346073655218
4.393757503001201,0.4953340349512545
4.397759103641457,0.41028344582500376
4.401760704281713,0.41751019036381215
4.405762304921969,0.5246791136354383
4.409763905562225,0.3822123356828802
4.413765506202481,0.39245423306622
4.417767106842737,0.36085056816468863
4.421768707482993,0.5643193647013008
4.42577030812325,0.38956866735528944
4.429771908763506,0.29104186676670213
4.433773509403761,0.2728090569118559
4.437775110044018,0.3463277291846003
4.441776710684274,0.42114263339051994
4.44577831132453,0.28971292850647457
4.449779911964786,0.18146840680648274
4.453781512605042,0.24362669526346403
4.4577831132452985,0.34073884009197863
4.461784713885554,0.2284780557739279
4.46578631452581,0.19524825420517988
4.469787915166067,0.24287296659606894
4.473789515806323,0.38535963604292345
4.4777911164465785,0.23671967694796336
4.481792717086835,0.2667280017645074
4.485794317727091,0.26833447562125373
4.4897959183673475,0.2249416823462157
4.493797519007603,0.2904146718175273
4.497799119647859,0.24045386041392164
4.501800720288116,0.20430670190494227
4.505802320928372,0.30631612940688024
4.509803921568627,0.2347707151559121
4.513805522208884,0.19229480309120361
4.51780712284914,0.2677132146246252
4.5218087234893956,0.32221179285780743
4.525810324129652,0.21436458412822765
4.529811924769908,0.21495002657772297
4.533813525410165,0.20405186072534054
4.53781512605042,0.2748266960579099
4.541816726690676,0.2809642805469915
4.545818327330933,0.1391404299214955
4.549819927971189,0.15695187447876258
4.5538215286114445,0.29934118550583705
4.557823129251701,0.2615085518015339
4.561824729891957,0.22266484772728612
4.565826330532213,0.1698802004852868
4.569827931172469,0.18479752859035098
4.573829531812725,0.3180013094750609
4.577831132452982,0.2758204917124119
4.581832733093237,0.13614664176955968
4.5858343337334935,0.27659992695826563
4.58983593437375,0.2829688834592445
4.593837535014006,0.26222255838489206
4.597839135654262,0.18960556849040291
4.601840736294518,0.20374689135932042
4.605842336934774,0.19792004085857862
4.609843937575031,0.10792731107680904
4.613845538215286,0.11354019203156575
4.617847138855542,0.18426042344477903
4.621848739495799,0.2451652225386819
4.625850340136054,0.12496786919063674
4.629851940776311,0.07089755197764916
4.633853541416567,0.17407828818899398
4.637855142056823,0.2265174500029357
4.641856742697079,0.27223640889948447
4.645858343337335,0.1993713416100007
4.649859943977591,0.21111892955054556
4.653861544617848,0.23693903166472324
4.657863145258103,0.16125510879409904
4.6618647458983595,0.12207606526674694
4.665866346538616,0.0915667436721966
4.669867947178871,0.16560053113439063
4.673869547819128,0.32111135463077106
4.677871148459384,0.18855787025629375
4.68187274909964,0.1838949041805026
4.685874349739896,0.10677663526603828
4.689875950380152,0.25642017381287385
4.6938775510204085,0.09691989399649989
4.697879151660665,0.1672608640933459
4.70188075230092,0.11060367408783557
4.705882352941177,0.17174608690283205
4.709883953581433,0.03384522441919831
4.713885554221688,0.0923737086549142
4.717887154861945,0.3055368199161562
4.721888755502201,0.2074824663630081
4.7258903561424574,0.08766769522370464
4.729891956782713,0.12828315007532107
4.733893557422969,0.07926300830205828
4.737895158063226,0.2508367073343942
4.741896758703482,0.10798017001683158
4.745898359343737,0.17810754656197303
4.749899959983994,0.09729481850818208
4.75390156062425,0.13339432900658504
4.757903161264506,0.18295594985276314
4.761904761904762,0.1379505887316475
4.765906362545018,0.16070099282555178
4.7699079631852745,0.13317255166989586
4.77390956382553,0.10139739411354992
4.777911164465786,0.09165306686894997
4.781912765106043,0.11837112479329298
4.785914365746299,0.02080463250946714
4.7899159663865545,0.2101174059709689
4.793917567026811,0.11465443994400422
4.797919167667067,0.05090994551839708
4.8019207683073235,0.07437078979832897
4.805922368947579,0.17120063779985145
4.809923969587835,0.15899018969841058
4.813925570228092,0.1453878957300644
4.817927170868347,0.11064808392953254
4.821928771508603,0.16213208380946525
4.82593037214886,0.1784767315950902
4.829931972789116,0.07197007917963394
4.833933573429372,0.006065163214459889
4.837935174069628,0.21366378355272228
4.841936774709884,0.13719415846690183
4.845938375350141,-0.005937364183919429
4.849939975990396,0.02310022884845636
4.853941576630652,0.15229526150551298
4.857943177270909,0.07917962714488733
4.861944777911165,0.09315639118102674
4.8659463785514205,0.049148798823010924
4.869947979191677,0.12028326249440005
4.873949579831933,0.06253950902625341
4.877951180472189,0.004402140407945683
4.881952781112445,-0.04693178394488441
4.885954381752701,0.18210987373990264
4.889955982392958,0.09616113982061811
4.893957583033213,0.09066834951581082
4.8979591836734695,-0.010758834597769204
4.901960784313726,0.05489756880000202
4.905962384953982,0.08919141669002024
4.909963985594238,0.10628182015838575
4.913965586234494,-0.004861449745330149
4.91796718687475,0.08910780243828646
4.921968787515006,0.07582318022696652
4.925970388155262,-0.008617678951686414
4.9299719887955185,-0.05817533085897623
4.933973589435775,0.042744498206844936
4.93797519007603,0.1617394888543381
4.941976790716287,0.0772403801163738
4.945978391356543,0.00633939941317669
4.949979991996799,0.056504028698750805
4.953981592637055,0.042388195347902946
4.957983193277311,0.06687300003243671
4.961984793917567,0.04248717139090365
4.965986394557824,0.002345064460544992
4.969987995198079,0.11785903675729868
4.9739895958383356,0.2799915894655708
4.977991196478592,0.26913587326090394
4.981992797118847,0.5811553991252556
4.985994397759104,0.8498049942793835
4.98999599839936,1.170210428158517
4.993997599039616,1.2289584037942687
4.997999199679872,1.0660536880068117
5.002000800320128,0.873063760515815
5.0060024009603845,0.5449717354639749
5.010004001600641,0.31694298192005865
5.014005602240896,0.02070906640116483
5.018007202881153,-0.08409840408561979
5.022008803521409,-0.1343118843181921
5.0260104041616644,-0.17592191092946055
5.030012004801921,-0.3091479731026124
5.034013605442177,-0.24449227973167034
5.0380152060824335,-0.3504573172006287
5.042016806722689,-0.29295518813962423
5.046018407362945,-0.358541598572101
5.050020008003202,-0.3343531474426404
5.054021608643458,-0.34644168543834214
5.058023209283713,-0.2353410477615954
5.06202480992397,-0.24490445425512908
5.066026410564226,-0.2687323780448862
5.070028011204482,-0.17787610815720656
5.074029611844738,-0.05988951374983405
5.078031212484994,-0.11855005221874483
5.082032813125251,-0.0710009367647452
5.086034413765506,-0.017874147692548713
5.090036014405762,0.06931262689827242
5.094037615046019,-0.06801463751571678
5.098039215686275,-0.06373112214015941
5.1020408163265305,-0.06299938121534135
5.106042416966787,-0.016953638448492868
5.110044017607043,-0.0658344395587595
5.1140456182472995,0.029165692113533495
5.118047218887555,-0.09658780713547585
5.122048819527811,0.014273588529633799
5.126050420168068,-0.002249528017862528
5.130052020808323,-0.06470788714721995
5.1340536214485795,0.012943870641974595
5.138055222088836,0.08974705454407492
5.142056822729092,0.128145057071949
5.146058423369348,0.06765232428370226
5.150060024009604,0.03064246390413062
5.15406162464986,0.1470470017399123
5.158063225290117,0.2887951817167571
5.162064825930372,0.10084061325724585
5.166066426570628,0.06311386180208436
5.170068027210885,0.07013127811448436
5.17406962785114,0.17497424813729218
5.178071228491397,0.17611878776144552
5.182072829131653,0.13626917085602847
5.186074429771909,0.13315865815206712
5.190076030412165,0.16014239445538128
5.194077631052421,0.19922047703551515
5.198079231692677,0.11667824723640294
5.202080832332934,0.16662905023747676
5.206082432973189,0.24866193427536043
5.2100840336134455,0.10931494195809441
5.214085634253702,0.11127518043075071
5.218087234893958,0.13295089687213638
5.222088835534214,0.1467278285456204
5.22609043617447,0.21759866136427697
5.230092036814726,-0.03669149179641868
5.234093637454982,0.07155269930752528
5.238095238095238,0.024178667922963394
5.2420968387354945,0.015735893044982654
5.246098439375751,-0.08294273807478982
5.250100040016006,-0.04851209531853688
5.254101640656263,0.10073607051604005
5.258103241296519,-0.03372856974794521
5.262104841936775,-0.11278603356462075
5.266106442577031,-0.1371153147499124
5.270108043217287,-0.16265395340651903
5.274109643857543,-0.09210728068772189
5.278111244497799,-0.18278514333429738
5.282112845138055,-0.1942262191154367
5.286114445778312,-0.14353059375654248
5.290116046418568,-0.154506374300298
5.294117647058823,-0.1581648113202534
5.29811924769908,-0.280719030193604
5.302120848339336,-0.13883049480663526
5.306122448979592,-0.13414554439472362
5.310124049619848,-0.14483832677258165
5.314125650260104,-0.1653808094844772
5.3181272509003605,-0.20973528017612747
5.322128851540617,-0.06568509936412234
5.326130452180872,-0.15846770509307725
5.330132052821129,-0.3306577101376303
5.334133653461385,-0.22960196798981036
5.3381352541016405,-0.11638368606166738
5.342136854741897,-0.12716076384917951
5.346138455382153,-0.28118762166436295
5.3501400560224095,-0.153061523032319
5.354141656662665,-0.09625152570625528
5.358143257302921,-0.10169792664059266
5.362144857943178,-0.19336796733242212
5.366146458583434,-0.255291884009993
5.370148059223689,-0.1801715410465234
5.374149659863946,-0.3297958578468979
5.378151260504202,-0.24666722629533844
5.382152861144458,-0.2596491811683056
5.386154461784714,-0.14633970976091093
5.39015606242497,-0.1808556024859011
5.394157663065227,-0.23661332753743394
5.398159263705482,-0.28902788255196
5.402160864345738,-0.19379468514166098
5.406162464985995,-0.0766925877860895
5.410164065626251,-0.18598674168990917
5.4141656662665065,-0.2503149111700002
5.418167266906763,-0.20620635103004795
5.422168867547019,-0.17983773215191043
5.4261704681872756,-0.1716821129275837
5.430172068827531,-0.2510621439855507
5.434173669467787,-0.14527716815308178
5.438175270108044,-0.19372289852194025
5.442176870748299,-0.16502721526419642
5.4461784713885555,-0.27457087700237837
5.450180072028812,-0.23711657332054129
5.454181672669068,-0.25512917346904246
5.458183273309324,-0.23131355337338322
5.46218487394958,-0.2827603033046744
5.466186474589836,-0.23600881614525096
5.470188075230093,-0.18237197358103396
5.474189675870348,-0.10221319296588016
5.4781912765106044,-0.3201319545482835
5.482192877150861,-0.36206389439613595
5.486194477791116,-0.21790381799760325
5.490196078431373,-0.1999087942443951
5.494197679071629,-0.34257711560324927
5.498199279711885,-0.3030468599378524
5.502200880352141,-0.3357248205415662
5.506202480992397,-0.21596470265795786
5.510204081632653,-0.18797522713036183
5.51420568227291,-0.29620533852610265
5.518207282913165,-0.2773871998351083
5.5222088835534215,-0.23726030037462353
5.526210484193678,-0.29461432231966717
5.530212084833934,-0.2832641263771464
5.53421368547419,-0.3159016462140028
5.538215286114446,-0.1670969862444645
5.542216886754702,-0.19710307402512955
5.546218487394958,-0.3744370515767933
5.550220088035214,-0.22533554909590434
5.5542216886754705,-0.23900137268073374
5.558223289315727,-0.1947098960196285
5.562224889955982,-0.262180906438773
5.566226490596239,-0.2713264160751729
5.570228091236495,-0.23146703119477546
5.574229691876751,-0.09918145112645013
5.578231292517007,-0.27098944648762696
5.582232893157263,-0.31883416090447664
5.5862344937975195,-0.2352637216653049
5.590236094437775,-0.1677671835722761
5.594237695078031,-0.22941962142689235
5.598239295718288,-0.27837043972255265
5.602240896358544,-0.28786532249847413
5.606242496998799,-0.28095875689107225
5.610244097639056,-0.26861776306701896
5.614245698279312,-0.29752020863390033
5.618247298919568,-0.2897361835192848
5.622248899559824,-0.1989809549771711
5.62625050020008,-0.15346362684726692
5.630252100840337,-0.2948104024120239
5.634253701480592,-0.3188594251252188
5.638255302120848,-0.13286348178148707
5.642256902761105,-0.30065828634813085
5.646258503401361,-0.3561511863681556
5.6502601040416165,-0.3034085257423401
5.654261704681873,-0.19137397374709478
5.658263305322129,-0.20957623572277642
5.6622649059623855,-0.31906743863442577
5.666266506602641,-0.3161680490713572
5.670268107242897,-0.29767907210385997
5.674269707883154,-0.18230066427519687
5.67827130852341,-0.3032115726807465
5.6822729091636655,-0.30620290068706857
5.686274509803922,-0.2539160545212643
5.690276110444178,-0.1704913841423264
5.694277711084434,-0.25802691370333125
5.69827931172469,-0.4777266042254644
5.702280912364946,-0.3138079591957089
5.706282513005203,-0.23634480549097642
5.710284113645458,-0.3460856973979509
5.714285714285714,-0.3729926394117743
5.718287314925971,-0.2772695012466956
5.722288915566227,-0.20704319944929483
5.7262905162064826,-0.2257630182545561
5.730292116846739,-0.3188641816820734
5.734293717486995,-0.3728171606631716
5.738295318127251,-0.255633925118734
5.742296918767507,-0.179107653253721
5.746298519407763,-0.3586902716606083
5.75030012004802,-0.3493770464585661
5.754301720688275,-0.21471468681835182
5.7583033213285315,-0.306478120279706
5.762304921968788,-0.35850650881590546
5.766306522609044,-0.2430064085017329
5.7703081232493,-0.3180006388207314
5.774309723889556,-0.24180174174460536
5.778311324529812,-0.3548758442448876
5.782312925170069,-0.3529643633206429
5.786314525810324,-0.22299811951178067
5.7903161264505805,-0.20054605062137154
5.794317727090837,-0.3663427649466489
5.798319327731092,-0.3991554770245035
5.802320928371349,-0.31694500159154865
5.806322529011605,-0.05320365118070624
5.810324129651861,0.03045521111030902
5.814325730292117,0.20187039929250047
5.818327330932373,0.503143389525287
5.822328931572629,0.8726655897950633
5.826330532212886,0.8832256224021726
5.830332132853141,0.796339685224655
5.834333733493398,0.4395512486651326
5.838335334133654,0.25059239383945886
5.842336934773909,0.019974037410482513
5.846338535414166,-0.2920561407851806
5.850340136054422,-0.4406818748881581
5.854341736694678,-0.45236904581393544
5.858343337334934,-0.47557789590671423
5.86234493797519,-0.5650077685087627
5.8663465386154465,-0.6035969844983259
5.870348139255703,-0.5068440924293773
5.874349739895958,-0.5626191760401442
5.878351340536215,-0.5896854120064493
5.882352941176471,-0.7008533996898784
5.886354541816727,-0.5441032092852213
5.890356142456983,-0.4500787927101821
5.894357743097239,-0.4932576296341
5.8983593437374955,-0.5339195080960623
5.902360944377751,-0.37965469973701294
5.906362545018007,-0.42072289655552525
5.910364145658264,-0.3005097972708515
5.91436574629852,-0.36344874607737876
5.918367346938775,-0.28936863996692663
5.922368947579032,-0.2872255620353069
5.926370548219288,-0.2585497756760575
5.9303721488595444,-0.37007505070684943
5.9343737494998,-0.22398134255309166
5.938375350140056,-0.17021239653649148
5.942376950780313,-0.30591667931879263
5.946378551420568,-0.3078759435454215
5.950380152060824,-0.30807287311851356
5.954381752701081,-0.20378511825876688
5.958383353341337,-0.18053415365386796
5.9623849539815925,-0.2490499225208069
5.966386554621849,-0.21508193749070212
5.970388155262105,-0.20841459291609474
5.9743897559023615,-0.06411585174558335
5.978391356542617,-0.1548945920695262
5.982392957182873,-0.1846483531569713
5.98639455782313,-0.02516517252974182
5.990396158463386,-0.01663022733696945
5.9943977591036415,-0.16512999805735779
5.998399359743898,-0.08384114311310037
6.002400960384154,0.018365517840117033
6.00640256102441,0.01654635497597795
6.010404161664666,0.10070835450056649
6.014405762304922,0.028146950546961078
6.018407362945179,-0.03176347887204213
6.022408963585434,0.017118020815436487
6.02641056422569,-0.028624455489285716
6.030412164865947,-0.13964724610327672
6.034413765506203,-0.054117456578700256
6.038415366146459,0.0979158986561014
6.042416966786715,0.09074457196419106
6.046418567426971,-0.06307590813764286
6.050420168067227,-0.07889995606390399
6.054421768707483,-0.00832234039661417
6.058423369347739,0.02798158401398309
6.062424969987996,-0.11675480651329942
6.066426570628251,-0.1272091361774061
6.0704281712685075,-0.03019795748458074
6.074429771908764,-0.03360736145340764
6.07843137254902,-0.0524174789620619
6.082432973189276,-0.2284501240955593
6.086434573829532,-0.23595055434801634
6.090436174469788,-0.1359031079982855
6.094437775110045,-0.16401740390760958
6.0984393757503,-0.3516366710796691
6.1024409763905565,-0.21447808679929287
6.106442577030813,-0.11913294063272668
6.110444177671068,-0.3193573961578561
6.114445778311325,-0.22817106601556822
6.118447378951581,-0.23841342941728966
6.122448979591837,-0.22059543091163303
6.126450580232093,-0.1740634574246465
6.130452180872349,-0.28244124948289523
6.1344537815126055,-0.24996649558077488
6.138455382152862,-0.2748818069294238
6.142456982793117,-0.13760788478910485
6.146458583433374,-0.3128978470784556
6.15046018407363,-0.22473596392320022
6.154461784713885,-0.22125175262058158
6.158463385354142,-0.1484798938795737
6.162464985994398,-0.2741622133683739
6.166466586634654,-0.3683824560069874
6.17046818727491,-0.09270280217122547
6.174469787915166,-0.23013478899848144
6.1784713885554225,-0.18788774121746632
6.182472989195679,-0.3045053273007172
6.186474589835934,-0.2126850134448774
6.190476190476191,-0.18440790145518382
6.194477791116447,-0.2224326238084854
6.1984793917567025,-0.309051688376216
6.202480992396959,-0.17461301070272736
6.206482593037215,-0.15707875220384254
6.2104841936774715,-0.22493936646548127
6.214485794317727,-0.29559306084703424
6.218487394957983,-0.21811721202306758
6.22248899559824,-0.20950552546468912
6.226490596238496,-0.18362957883179748
6.230492196878751,-0.23849470196050604
6.234493797519008,-0.23343237331475308
6.238495398159264,-0.15157473257377302
6.2424969987995205,-0.1608622219880525
6.246498599439776,-0.277922652473908
6.250500200080032,-0.11142117845289971
6.254501800720289,-0.18475784897668424
6.258503401360544,-0.1404032678720723
6.2625050020008,-0.304591299975291
6.266506602641057,-0.265712942961116
6.270508203281313,-0.13290354238493415
6.2745098039215685,-0.08100636860506927
6.278511404561825,-0.20276958133254364
6.282513005202081,-0.1894523632639007
6.286514605842338,-0.22841771112000075
6.290516206482593,-0.16087589504070138
6.294517807122849,-0.18755702506944533
6.298519407763106,-0.23722249653610233
6.302521008403361,-0.12733143405743846
6.3065226090436175,-0.18351090076629475
6.310524209683874,-0.16019191024531382
6.31452581032413,-0.3319355172133782
6.318527410964386,-0.23487910571588477
6.322529011604642,-0.043094629611540446
6.326530612244898,-0.09599475538564134
6.330532212885155,-0.14324900732498527
6.33453381352541,-0.2525480929122
6.3385354141656665,-0.028547526245323127
6.342537014805923,-0.14194529790180394
6.346538615446179,-0.12870632979812013
6.350540216086435,-0.14720892639563088
6.354541816726691,-0.1485826275762573
6.358543417366947,-0.1807867862830601
6.362545018007203,-0.17494016430716638
6.366546618647459,-0.22796110165091252
6.370548219287715,-0.12427470343124408
6.374549819927972,-0.1710989101478146
6.378551420568227,-0.14276257787043675
6.382553021208484,-0.23290392992209913
6.38655462184874,-0.1342511646825078
6.390556222488996,-0.09278297927072957
6.394557823129252,-0.14021484226110636
6.398559423769508,-0.23921258127213318
6.402561024409764,-0.23429280761603646
6.40656262505002,-0.07562725659378083
6.410564225690276,-0.1289800386940486
6.4145658263305325,-0.2212015007473087
6.418567426970789,-0.20424665503114672
6.422569027611044,-0.13386134153166618
6.426570628251301,-0.05428889627187497
6.430572228891557,-0.14207494949628457
6.434573829531813,-0.1052056790492743
6.438575430172069,-0.06405900422406802
6.442577030812325,-0.05936757835126252
6.4465786314525815,-0.17585243700905956
6.450580232092838,-0.20382804119266296
6.454581832733093,-0.043318488962972565
6.45858343337335,-0.13185564715798792
6.462585034013606,-0.17220527620432924
6.466586634653861,-0.12838580830829532
6.470588235294118,-0.11053460146400845
6.474589835934374,-0.12725312070637046
6.47859143657463,-0.17463665403482978
6.482593037214886,-0.08835497625933267
6.486594637855142,-0.11029529010698447
6.490596238495399,-0.08989649505661465
6.494597839135655,-0.05797427183800653
6.49859943977591,-0.05714234607855284
6.502601040416167,-0.060981827781739086
6.506602641056423,-0.04561522824048896
6.5106042416966785,-0.14989887060918947
6.514605842336935,-0.19743098302466494
6.518607442977191,-0.05190471375357163
6.5226090436174475,-0.0563590216128703
6.526610644257703,-0.06471341931662
6.530612244897959,-0.13763542345161878
6.534613845538216,-0.11776703648262639
6.538615446178472,-0.01538108114651305
6.5426170468187275,-0.0031827650015962307
6.546618647458984,-0.18832893770370163
6.55062024809924,-0.16318809356409406
6.5546218487394965,-0.06489317034747899
6.558623449379752,0.051566989588221535
6.562625050020008,-0.0769828276947167
6.566626650660265,-0.035593770239494005
6.57062825130052,-0.06192815523086902
6.574629851940776,-0.006070835613848191
6.578631452581033,-0.17512360444673106
6.582633053221289,-0.09203362674494273
6.586634653861545,-0.04913834082474669
6.590636254501801,0.03959503258259746
6.594637855142057,-0.07263488586815045
6.598639455782314,-0.10350035287782994
6.602641056422569,0.08439672535727862
6.606642657062825,-0.030418267578726288
6.610644257703082,-0.03436865025619576
6.614645858343337,-0.06988651641190732
6.6186474589835935,-0.02618100519632618
6.62264905962385,0.0621106077422066
6.626650660264106,-0.08661275525881006
6.630652260904362,-0.03677032977831938
6.634653861544618,0.03425062333867597
6.638655462184874,0.18734752238681646
6.642657062825131,0.2850686966195947
6.646658663465386,0.5207775603223997
6.6506602641056425,0.7882642673897442
6.654661864745899,1.1431291124789726
6.658663465386155,1.2166978548658003
6.662665066026411,1.0180898721169
6.666666666666667,0.8002050014157479
6.670668267306923,0.5621770012551035
6.674669867947179,0.26796733001343553
6.678671468587435,0.08396922628614269
6.682673069227691,-0.024583503790108964
6.686674669867948,-0.0011068678756663338
6.690676270508203,-0.011861113419610221
6.69467787114846,-0.21576353480327456
6.698679471788716,-0.27862267353569287
6.702681072428972,-0.25969584804774853
6.706682673069228,-0.2615232303733426
6.710684273709484,-0.2463647312412871
6.71468587434974,-0.27251348914733564
6.718687474989996,-0.26849137113346205
6.722689075630252,-0.11521912086596428
6.7266906762705085,-0.1386230290085679
6.730692276910765,-0.08318526740289658
6.73469387755102,-0.06296586853838851
6.738695478191277,-0.022078214193393952
6.742697078831533,0.01676637287137501
6.746698679471789,-0.023614695425240702
6.750700280112045,-0.045086274697565855
6.754701880752301,0.08229847878369237
6.7587034813925575,0.1185779175547955
6.762705082032813,0.031747927436629755
6.766706682673069,0.04554265089749541
6.770708283313326,0.0869637531280178
6.774709883953582,0.19562922650640627
6.778711484593837,0.18979999389906912
6.782713085234094,0.04485287940286738
6.78671468587435,0.05741388765319798
6.7907162865146065,0.2597345280745495
6.794717887154862,0.18308384664913324
6.798719487795118,0.16115814655375843
6.802721088435375,0.19385868795806924
6.806722689075631,0.28900656050464263
6.810724289715886,0.230966724003334
6.814725890356143,0.2258419697445259
6.818727490996399,0.25389169439568615
6.8227290916366545,0.361205324330957
6.826730692276911,0.30600045905090806
6.830732292917167,0.24887613145828064
6.834733893557424,0.3573841909081731
6.838735494197679,0.456887059613919
6.842737094837935,0.3626364180740638
6.846738695478192,0.4628100478054291
6.850740296118448,0.324783701929913
6.8547418967587035,0.38570062915996906
6.85874349739896,0.480510499449959
6.862745098039216,0.33514110900566163
6.866746698679472,0.3741008625748897
6.870748299319728,0.38826549791623094
6.874749899959984,0.38328572025675084
6.878751500600241,0.3917761833928373
6.882753101240496,0.28618084347604655
6.8867547018807524,0.3498428123695289
6.890756302521009,0.4211680327415759
6.894757903161265,0.3002420695712243
6.898759503801521,0.2946462201858485
6.902761104441777,0.3415399501734521
6.906762705082033,0.26260979632779197
6.91076430572229,0.24611451065673254
6.914765906362545,0.27623213208313846
6.918767507002801,0.31837398136688333
6.922769107643058,0.23545062677769815
6.926770708283313,0.31650938085102237
6.9307723089235695,0.21989152114667374
6.934773909563826,0.1965065852056458
6.938775510204082,0.31523739387465505
6.942777110844338,0.17611503900303047
6.946778711484594,0.21813103576025578
6.95078031212485,0.1023136300154267
6.954781912765107,0.2929949387520944
6.958783513405362,0.21402819598694708
6.9627851140456185,0.14810294339464858
6.966786714685875,0.135659175262634
6.97078831532613,0.16718982697194765
6.974789915966387,0.23322610982289335
6.978791516606643,0.14611375445647526
6.982793117246899,0.08475530784109062
6.986794717887155,0.1806337301631643
6.990796318527411,0.30937777522628784
6.9947979191676675,0.05508669839364369
6.998799519807924,0.0894958872233067
7.002801120448179,0.19748323880160373
7.006802721088436,0.23347989523527982
7.010804321728692,0.11176476704397201
7.014805922368948,0.1445174195584476
7.018807523009204,0.14484737401535291
7.02280912364946,0.28441769130739125
7.026810724289716,0.15883393609593516
7.030812324929972,0.19434491366812975
7.034813925570228,0.1436360365803199
7.038815526210485,0.2545598035657762
7.042817126850741,0.24942530088000284
7.046818727490996,0.1412979694707085
7.050820328131253,0.24385760036068563
7.054821928771509,0.1825297117872278
7.058823529411765,0.2071742608304138
7.062825130052021,0.08566648915715896
7.066826730692277,0.12555330734253733
7.0708283313325335,0.22979306389543405
7.074829931972789,0.22252282660384226
7.078831532613045,0.2565314238282501
7.082833133253302,0.12536770456177537
7.086834733893558,0.27992812934925826
7.0908363345338135,0.26740608574954405
7.09483793517407,0.2775846342072437
7.098839535814326,0.11806185037255515
7.1028411364545825,0.2469276785118294
7.106842737094838,0.1767308976233849
7.110844337735094,0.14614869610458758
7.114845938375351,0.2613878525821258
7.118847539015607,0.21738557142332146
7.122849139655862,0.2519623053290884
7.126850740296119,0.2326334263980348
7.130852340936375,0.22774297505264948
7.1348539415766306,0.1563511825119543
7.138855542216887,0.3065238707541292
7.142857142857143,0.2622688020634499
7.1468587434974,0.1826036069725951
7.150860344137655,0.2082931254284013
7.154861944777911,0.25179170479050694
7.158863545418168,0.30664985865422145
7.162865146058424,0.1814217266292805
7.1668667466986795,0.218024308709479
7.170868347338936,0.25352927950247545
7.174869947979192,0.2067319599650071
7.178871548619448,0.28477666307031335
7.182873149259704,0.07192925999470502
7.18687474989996,0.3512298302118968
7.190876350540217,0.24059236866083386
7.194877951180472,0.21530683488306435
7.1988795518207285,0.2669876643439547
7.202881152460985,0.26299240102126736
7.206882753101241,0.3512337150607218
7.210884353741497,0.3083243390596783
7.214885954381753,0.17059709531590012
7.218887555022009,0.18389653933285677
7.222889155662265,0.3469622884654453
7.226890756302521,0.259211637069633
7.230892356942777,0.19176375695181147
7.234893957583034,0.11649758583629263
7.238895558223289,0.35480885586795213
7.242897158863546,0.3385729529095552
7.246898759503802,0.23771631902917406
7.250900360144058,0.2146843565333712
7.254901960784314,0.2866055304713381
7.25890356142457,0.28223711731604734
7.262905162064826,0.32199721853963853
7.266906762705083,0.3044297780322657
7.270908363345338,0.23837276581532735
7.2749099639855945,0.26616207995496133
7.278911564625851,0.23546182893675308
7.282913165266106,0.20717003581758625
7.286914765906363,0.2286017586776596
7.290916366546619,0.385226926377394
7.294917967186875,0.31588414423644245
7.298919567827131,0.24477205792632328
7.302921168467387,0.2678428590676981
7.3069227691076435,0.34717493916422315
7.3109243697479,0.21502275342328508
7.314925970388155,0.2352797661751198
7.318927571028412,0.28818981268676774
7.322929171668668,0.3672816395027618
7.326930772308923,0.4168384093395835
7.33093237294918,0.3105557873318719
7.334933973589436,0.27862811119710634
7.3389355742296924,0.2893796077973262
7.342937174869948,0.27151696066262926
7.346938775510204,0.14075114146487838
7.350940376150461,0.29333899359071003
7.354941976790717,0.3514495223178162
7.358943577430972,0.3573608633966995
7.362945178071229,0.32190768801048086
7.366946778711485,0.2068166693568911
7.370948379351741,0.3086738750748608
7.374949979991997,0.23599116993434713
7.378951580632253,0.2833515484376052
7.3829531812725095,0.283317503416185
7.386954781912765,0.32311558300235377
7.390956382553021,0.34280971578864317
7.394957983193278,0.27620697008217343
7.398959583833534,0.271658636835846
7.4029611844737895,0.2790710624250334
7.406962785114046,0.2790203163987034
7.410964385754302,0.3163751428230805
7.4149659863945585,0.22990510360604377
7.418967587034814,0.30041170139561674
7.42296918767507,0.29570643862298884
7.426970788315327,0.3044275900431272
7.430972388955582,0.2185905396892795
7.434973989595838,0.3154101508955341
7.438975590236095,0.3459556803173376
7.442977190876351,0.4561100532279643
7.446978791516607,0.2838606872455993
7.450980392156863,0.19646121715615367
7.454981992797119,0.3520720238768713
7.458983593437376,0.38102755906089036
7.462985194077631,0.3161843874585714
7.466986794717887,0.2712263380300395
7.470988395358144,0.4322011767320582
7.4749899959984,0.5825666235860117
7.4789915966386555,0.9291104859950329
7.482993197278912,1.1023401111193827
7.486994797919168,1.4144963439089064
7.490996398559424,1.5001249269350434
7.49499799919968,1.4345499237827097
7.498999599839936,1.0142517069835375
7.503001200480193,0.774204182509375
7.507002801120448,0.6532499412382942
7.5110044017607045,0.255951717216541
7.515006002400961,0.21080174224707288
7.519007603041217,0.10314002331287045
7.523009203681473,0.15755280908545294
7.527010804321729,0.1519464235806947
7.531012404961985,0.01028329821800495
7.535014005602241,0.051426845083089257
7.539015606242497,0.01267611021304849
7.5430172068827535,0.021353380040968303
7.54701880752301,0.02614630999197927
7.551020408163265,0.025153760416959187
7.555022008803522,0.10639097512500847
7.559023609443778,0.10709930323738304
7.563025210084034,0.12718527445855413
7.56702681072429,0.11330260716583657
7.571028411364546,0.17826104381792193
7.575030012004802,0.2278638413520411
7.579031612645059,0.34616440229341144
7.583033213285314,0.1766646219835165
7.5870348139255706,0.2475617382412969
7.591036414565827,0.3211737280799325
7.595038015206082,0.2958882073348345
7.599039615846339,0.20269842853910175
7.603041216486595,0.31891052468628983
7.607042817126851,0.4071654135922575
7.611044417767107,0.3950384261650519
7.615046018407363,0.31279179984495303
7.6190476190476195,0.3707190607875166
7.623049219687876,0.37327526083822316
7.627050820328131,0.411470753814822
7.631052420968388,0.34660774925231186
7.635054021608644,0.33863368391004117
7.6390556222488994,0.4787719294838573
7.643057222889156,0.53336481155386
7.647058823529412,0.4409560336757524
7.6510604241696685,0.3234089361903245
7.655062024809924,0.4767606578694418
7.65906362545018,0.5313721479743988
7.663065226090437,0.4965359039412964
7.667066826730693,0.5230198516931839
7.671068427370948,0.5618563283817568
7.675070028011205,0.6698624324648759
7.679071628651461,0.5374412883940555
7.6830732292917165,0.45886606354856035
7.687074829931973,0.6148813651259684
7.691076430572229,0.6941805206247398
7.695078031212486,0.6098984476333894
7.699079631852741,0.5153402039282216
7.703081232492997,0.560447201736572
7.707082833133254,0.5304351620664192
7.71108443377351,0.5778738816578396
7.7150860344137655,0.5295978034460419
7.719087635054022,0.5198513015734987
7.723089235694278,0.6308753278575473
7.7270908363345345,0.5281125583880839
7.73109243697479,0.4729939668372095
7.735094037615046,0.3655069670808184
7.739095638255303,0.4269933230083964
7.743097238895558,0.4673045777379363
7.7470988395358145,0.2570914413058147
7.751100440176071,0.2545003321226849
7.755102040816327,0.42154639951214595
7.759103641456583,0.46222679093462116
7.763105242096839,0.20317520540151715
7.767106842737095,0.29254874182137136
7.771108443377352,0.36720579774059803
7.775110044017607,0.21775479614541993
7.779111644657863,0.23333266536503705
7.78311324529812,0.26908066077797094
7.787114845938375,0.14158194059887752
7.791116446578632,0.2806771375970091
7.795118047218888,0.270739824022777
7.799119647859144,0.23128452139520828
7.8031212484994,0.24011353307604116
7.807122849139656,0.37193813855903
7.811124449779912,0.22284974577494557
7.815126050420169,0.24623666306190056
7.819127651060424,0.19718096933252635
7.8231292517006805,0.24112222499195535
7.827130852340937,0.31699171480015287
7.831132452981193,0.15948529652565735
7.835134053621449,0.24458700283656754
7.839135654261705,0.3078876378331931
7.843137254901961,0.2607614397798279
7.847138855542217,0.2914995250402902
7.851140456182473,0.15288331474162503
7.8551420568227295,0.30375223793631845
7.859143657462986,0.2974275820283946
7.863145258103241,0.18622220632616662
7.867146858743498,0.21882704992968138
7.871148459383754,0.27011674900656224
7.87515006002401,0.27243395563987954
7.879151660664266,0.11816292036061592
7.883153261304522,0.21805184862930624
7.887154861944778,0.17494838583396305
7.891156462585034,0.3429813298841717
7.89515806322529,0.21720110343429178
7.899159663865547,0.1847502259956647
7.903161264505803,0.13595913235207038
7.907162865146058,0.17569647970735872
7.911164465786315,0.24771653605147673
7.915166066426571,0.22606618491314676
7.919167667066827,0.23689572905609463
7.923169267707083,0.25640872543430704
7.927170868347339,0.22926852192022512
7.9311724689875955,0.22769481513076942
7.935174069627852,0.28426029863509994
7.939175670268107,0.2558165677720782
7.943177270908364,0.2923365844264172
7.94717887154862,0.16125325398849966
7.9511804721888755,0.11901886753187191
7.955182072829132,0.30224837529500354
7.959183673469388,0.24793333217304303
7.9631852741096445,0.1137274068012469
7.9671868747499,0.20327141889394104
7.971188475390156,0.16699124138924937
7.975190076030413,0.2165219811116735
7.979191676670669,0.1809588128458884
7.983193277310924,0.12443442583904027
7.987194877951181,0.1932428496057482
7.991196478591437,0.20186938109859776
7.995198079231693,0.12881493189883034
7.999199679871949,0.20029329258037204
8.003201280512204,0.17861020844453113
8.00720288115246,0.13905267576242436
8.011204481792717,0.14564840501120513
8.015206082432973,0.09180538654938084
8.01920768307323,0.13026711657002715
8.023209283713486,0.18021956069546569
8.027210884353742,0.22217052073039117
8.031212484993999,0.10190677074224441
8.035214085634253,0.17541987395606398
8.03921568627451,0.24147254226406933
8.043217286914766,0.16006195226622255
8.047218887555022,0.12503265681288245
8.051220488195279,0.17302462879715974
8.055222088835535,0.18466102979453422
8.059223689475791,0.16296010072964723
8.063225290116046,0.12227811054879387
8.067226890756302,0.09479549301153836
8.071228491396559,0.18150341580242274
8.075230092036815,0.1958795444205841
8.079231692677071,0.15434655599842653
8.083233293317328,0.07417330380990544
8.087234893957584,0.13522069802940617
8.09123649459784,0.1380922084380153
8.095238095238095,0.1732628873532432
8.099239695878351,0.06942783185281359
8.103241296518608,0.10761847693147711
8.107242897158864,0.10183154351428068
8.11124449779912,0.03168000857937095
8.115246098439377,0.04010133594605762
8.119247699079633,0.13526611149713963
8.123249299719888,0.16790903210528957
8.127250900360144,0.27324547668645705
8.1312525010004,0.07413106604756181
8.135254101640657,0.11271266513992931
8.139255702280913,0.17292854803345498
8.14325730292117,0.11303551808122883
8.147258903561426,0.13494275349607432
8.15126050420168,0.05898565299742463
8.155262104841936,0.13939004696822885
8.159263705482193,0.14886246063847158
8.16326530612245,0.04573799972284431
8.167266906762706,0.09013282664095748
8.171268507402962,0.14274215047491834
8.175270108043218,0.18724091807441037
8.179271708683475,0.050664636472861596
8.183273309323729,0.05511352360423799
8.187274909963985,0.17142413717093474
8.191276510604242,0.06831621248900702
8.195278111244498,0.033344177760728046
8.199279711884754,0.057957299818787555
8.20328131252501,0.027526049072801637
8.207282913165267,0.12471079634674015
8.211284513805522,0.09511757698752084
8.215286114445778,0.04739611148029072
8.219287715086034,-0.021189527611824882
8.22328931572629,0.17461334895660313
8.227290916366547,0.07188883666969251
8.231292517006803,-0.01367286171830951
8.23529411764706,-0.06069412132346531
8.239295718287316,0.06954876914572616
8.24329731892757,0.1325605820254988
8.247298919567827,0.05816825370951498
8.251300520208083,0.018502199953575944
8.25530212084834,0.06192181551044522
8.259303721488596,-0.02187168742861039
8.263305322128852,-0.12857369272868965
8.267306922769109,0.010284108223279333
8.271308523409363,0.024422435299328152
8.27531012404962,0.11386556529742876
8.279311724689876,0.06124248848205924
8.283313325330132,-0.03366098451299006
8.287314925970389,0.07662980718435844
8.291316526610645,0.059573017146916304
8.295318127250901,0.05387125009754221
8.299319727891156,0.053718653269556646
8.303321328531412,0.19791424033694055
8.307322929171669,0.45937012842710645
8.311324529811925,0.557498752011136
8.315326130452181,0.8110303593223827
8.319327731092438,1.0975328675413643
8.323329331732694,1.25604775514993
8.32733093237295,1.1223032130165538
8.331332533013205,0.7656858492785154
8.335334133653461,0.48983573491289395
8.339335734293718,0.2862103243697649
8.343337334933974,0.05588407187873207
8.34733893557423,-0.08128409400327574
8.351340536214487,-0.24190840235394062
8.355342136854743,-0.13418975349596146
8.359343737494997,-0.22196530946035808
8.363345338135254,-0.20197675724931496
8.36734693877551,-0.33212571096936805
8.371348539415767,-0.37215806138532836
8.375350140056023,-0.19489202532449226
8.37935174069628,-0.35371944501429725
8.383353341336536,-0.37931649463448336
8.387354941976792,-0.1415117393667917
8.391356542617046,-0.23789925313059676
8.395358143257303,-0.21291419599524902
8.39935974389756,-0.11898450731568297
8.403361344537815,-0.18165278893076248
8.407362945178072,-0.07806480925615182
8.411364545818328,-0.10807480830988186
8.415366146458584,-0.2095418071712309
8.419367747098839,-0.1947527745152709
8.423369347739095,-0.015552255267096617
8.427370948379352,-0.04699282467888287
8.431372549019608,-0.12271469917135472
8.435374149659864,-0.07178425995072031
8.43937575030012,-0.06761350458364354
8.443377350940377,0.09348403761994256
8.447378951580633,-0.029061187712749615
8.451380552220888,-0.009445074535881906
8.455382152861144,-0.005115719676171464
8.4593837535014,0.04153211128865807
8.463385354141657,-0.09402817886037552
8.467386954781913,0.027950130903573775
8.47138855542217,0.05850190897669193
8.475390156062426,0.1940514923279848
8.47939175670268,0.0876742539216116
8.483393357342937,0.02484279435202362
8.487394957983193,0.16889583772125455
8.49139655862345,0.1670502723918757
8.495398159263706,0.061660988171730394
8.499399759903962,0.14535233507209822
8.503401360544219,0.16590457375243023
8.507402961184473,0.27227544746928733
8.51140456182473,0.1631322479869123
8.515406162464986,0.1767470856710818
8.519407763105242,0.24032243345538196
8.523409363745499,0.27249038705434003
8.527410964385755,0.2218621800709129
8.531412565026011,0.1304153118362952
8.535414165666268,0.11405430048388504
8.539415766306522,0.22914094559496326
8.543417366946779,0.156825564846593
8.547418967587035,0.19552746768606644
8.551420568227291,0.11162965218278512
8.555422168867548,0.14367175588454362
8.559423769507804,0.08443338142823142
8.56342537014806,0.017377353580917333
8.567426970788315,-0.05502877062404223
8.571428571428571,0.10590109588277115
8.575430172068828,0.05079549419927811
8.579431772709084,-0.0347606871702162
8.58343337334934,-0.06176623403283993
8.587434973989597,-0.040637862292186494
8.591436574629853,-0.09542727777886605
8.59543817527011,-0.1389761515358533
8.599439775910364,-0.20751114175035595
8.60344137655062,-0.05995841088429397
8.607442977190876,0.0627649850579825
8.611444577831133,-0.2081151541089682
8.61544617847139,-0.21931042032796888
8.619447779111646,-0.21090386471845451
8.623449379751902,-0.1348686860399623
8.627450980392156,-0.09918330681629813
8.631452581032413,-0.17657095111404145
8.635454181672669,-0.16324356862053746
8.639455782312925,-0.12234009812972743
8.643457382953182,-0.1986193356927068
8.647458983593438,-0.20604425384300284
8.651460584233694,-0.21637750595366445
8.65546218487395,-0.04768325521200498
8.659463785514205,-0.10050506969497693
8.663465386154462,-0.1976969464963939
8.667466986794718,-0.24873327273575085
8.671468587434974,-0.1873543107466833
8.67547018807523,-0.16894889617426698
8.679471788715487,-0.2002470465682771
8.683473389355743,-0.2539613971454865
8.687474989995998,-0.134379494797092
8.691476590636254,-0.09955502067828301
8.69547819127651,-0.1377945590326496
8.699479791916767,-0.1933592863906475
8.703481392557023,-0.2880075309455973
8.70748299319728,-0.2045833879350108
8.711484593837536,-0.24148775374667517
8.71548619447779,-0.2473858217415716
8.719487795118047,-0.22677626730132258
8.723489395758303,-0.24685186274693652
8.72749099639856,-0.16975666389041125
8.731492597038816,-0.2078055893963283
8.735494197679072,-0.2798969206741737
8.739495798319329,-0.14932080197435527
8.743497398959585,-0.19500373200192814
8.74749899959984,-0.22751865866680526
8.751500600240096,-0.20016214844412505
8.755502200880352,-0.22484817895863105
8.759503801520609,-0.1382663115883177
8.763505402160865,-0.3429290174315258
8.767507002801121,-0.24712652779460514
8.771508603441378,-0.20548142755752244
8.775510204081632,-0.16017867146566264
8.779511804721889,-0.18181878237676483
8.783513405362145,-0.3235274241675531
8.787515006002401,-0.18626778886747558
8.791516606642658,-0.08343216047597901
8.795518207282914,-0.17607458219903835
8.79951980792317,-0.3741074684706942
8.803521408563427,-0.26730065144004433
8.807523009203681,-0.09079438478817331
8.811524609843937,-0.20369327815457347
8.815526210484194,-0.25363959533860825
8.81952781112445,-0.27100664447527095
8.823529411764707,-0.1613240859045397
8.827531012404963,-0.17010918957528728
8.83153261304522,-0.329442909119654
8.835534213685474,-0.2547960891300033
8.83953581432573,-0.17581170436940236
8.843537414965986,-0.25473139665142275
8.847539015606243,-0.3131770831097416
8.8515406162465,-0.23214109181804227
8.855542216886755,-0.22448191315875302
8.859543817527012,-0.2747999080035463
8.863545418167266,-0.2983258124787159
8.867547018807523,-0.32039938464906187
8.871548619447779,-0.28338140618916924
8.875550220088035,-0.17202627842686496
8.879551820728292,-0.31516234995752923
8.883553421368548,-0.3565870949668275
8.887555022008804,-0.22578228504440667
8.89155662264906,-0.2522962714775741
8.895558223289315,-0.22480618622239926
8.899559823929572,-0.38634433267599866
8.903561424569828,-0.30193309136134433
8.907563025210084,-0.15253379100564246
8.91156462585034,-0.2557822798857315
8.915566226490597,-0.2703744566725375
8.919567827130853,-0.22489244081506635
8.923569427771108,-0.24171181245427922
8.927571028411364,-0.17132888342535374
8.93157262905162,-0.310537211603126
8.935574229691877,-0.34508327005172856
8.939575830332133,-0.2449936450676929
8.94357743097239,-0.2646871461805462
8.947579031612646,-0.3255868613200648
8.951580632252902,-0.2737017059605891
8.955582232893157,-0.35487117305726523
8.959583833533413,-0.2538108934775605
8.96358543417367,-0.2893910829532044
8.967587034813926,-0.2800711927653562
8.971588635454182,-0.3351870758277749
8.975590236094439,-0.17543048151644608
8.979591836734695,-0.30936623889872594
8.98359343737495,-0.3062840358407793
8.987595038015206,-0.3640801597344971
8.991596638655462,-0.2327588415537663
8.995598239295719,-0.3170372124322098
8.999599839935975,-0.3455914826773084
9.003601440576231,-0.2555791260647621
9.007603041216488,-0.14217474122029877
9.011604641856744,-0.2043326266124649
9.015606242496998,-0.31934669475177824
9.019607843137255,-0.29554352006213214
9.023609443777511,-0.2537952994708343
9.027611044417768,-0.277098070727607
9.031612645058024,-0.3973257240720756
9.03561424569828,-0.2653843328314721
9.039615846338537,-0.2248627844425754
9.043617446978791,-0.21342101704839606
9.047619047619047,-0.390878633111999
9.051620648259304,-0.3031523112865977
9.05562224889956,-0.27902041609233413
9.059623849539816,-0.2999665828547723
9.063625450180073,-0.35263325693303266
9.06762705082033,-0.24719074355496293
9.071628651460584,-0.2665587339694371
9.07563025210084,-0.3005526752996167
9.079631852741096,-0.2293074966693994
9.083633453381353,-0.2764835874045192
9.087635054021609,-0.2679998537554167
9.091636654661865,-0.24742546408860785
9.095638255302122,-0.2859348342695742
9.099639855942378,-0.3968113484980494
9.103641456582633,-0.27469909064857173
9.107643057222889,-0.22602754631440028
9.111644657863145,-0.3135235876006573
9.115646258503402,-0.37424352577761005
9.119647859143658,-0.335855465644985
9.123649459783914,-0.15391067132413874
9.12765106042417,-0.35621684719534147
9.131652661064425,-0.2693436550031312
9.135654261704682,-0.12029603546845381
9.139655862344938,-0.04448236781807741
9.143657462985194,0.4269711650236998
9.14765906362545,0.4561652721484002
9.151660664265707,0.6647369069032186
9.155662264905963,0.9822501848863684
9.15966386554622,0.8393621625040237
9.163665466186474,0.5426726083661083
9.16766706682673,0.16228160801018313
9.171668667466987,-0.04237907876218064
9.175670268107243,-0.18420502271673478
9.1796718687475,-0.31541316255814206
9.183673469387756,-0.46791462045214305
9.187675070028012,-0.44636426093168124
9.191676670668267,-0.5792679833468333
9.195678271308523,-0.568082438676904
9.19967987194878,-0.5303161516097034
9.203681472589036,-0.5424361144451337
9.207683073229292,-0.5522247731200756
9.211684673869549,-0.6786976033677868
9.215686274509805,-0.5494275640286791
9.219687875150061,-0.5096760173232374
9.223689475790316,-0.5249061252116738
9.227691076430572,-0.5376347970489691
9.231692677070829,-0.4717580826320944
9.235694277711085,-0.3681869343025553
9.239695878351341,-0.2476506897436747
9.243697478991598,-0.3257879265350027
9.247699079631854,-0.3392212001674282
9.251700680272108,-0.3119241205174577
9.255702280912365,-0.22082158952182843
9.259703881552621,-0.33347403978000273
9.263705482192877,-0.3160331539898393
9.267707082833134,-0.3251115738422252
9.27170868347339,-0.2811241317814901
9.275710284113647,-0.25166995225115013
9.279711884753901,-0.2969246973758533
9.283713485394157,-0.30883432409774153
9.287715086034414,-0.15104527514012045
9.29171668667467,-0.10527171576718655
9.295718287314926,-0.20526550711406527
9.299719887955183,-0.18252366584871005
9.30372148859544,-0.22142255567547559
9.307723089235695,-0.1605704119786949
9.31172468987595,-0.030009844953201584
9.315726290516206,-0.09696599633552201
9.319727891156463,-0.17845307599370083
9.323729491796719,-0.01800377486591956
9.327731092436975,-0.033031105802981325
9.331732693077232,-0.1288078573730319
9.335734293717488,-0.10116811819865949
9.339735894357743,-0.07275331751429312
9.343737494997999,0.10748393103484012
9.347739095638255,-0.015323131132376738
9.351740696278512,-0.03355123415591149
9.355742296918768,0.09887023173114268
9.359743897559024,0.07244944798356395
9.36374549819928,-0.02994556336160032
9.367747098839537,-0.09364850714205672
9.371748699479792,0.002139469519292791
9.375750300120048,0.11630842014548912
9.379751900760304,-0.006722521061342735
9.38375350140056,-0.0783627630781357
9.387755102040817,-0.2049207042076341
9.391756702681073,-0.0387027663475309
9.39575830332133,-0.12761435229770987
9.399759903961584,-0.10765265798274187
9.40376150460184,-0.10273126534762646
9.407763105242097,-0.16766646010277064
9.411764705882353,-0.18798296628329644
9.41576630652261,-0.22297762581922434
9.419767907162866,-0.20278993643573295
9.423769507803122,-0.09800665583667624
9.427771108443377,-0.19384154674631507
9.431772709083633,-0.29460317742910175
9.43577430972389,-0.22714187939625657
9.439775910364146,-0.15504522114487063
9.443777511004402,-0.15501380829321168
9.447779111644659,-0.3122567823535193
9.451780712284915,-0.26833369358526715
9.455782312925171,-0.17073433830265763
9.459783913565426,-0.1865981402924354
9.463785514205682,-0.29270052735944546
9.467787114845938,-0.2996152371012296
9.471788715486195,-0.18411747704614825
9.475790316126451,-0.22538395558844906
9.479791916766708,-0.2573991780765275
9.483793517406964,-0.32875944220520165
9.487795118047218,-0.25320333516688187
9.491796718687475,-0.17440791954433016
9.495798319327731,-0.20142850816261257
9.499799919967987,-0.2547631304217763
9.503801520608244,-0.30581817505446335
9.5078031212485,-0.11737419891155859
9.511804721888756,-0.18470706151662933
9.515806322529013,-0.39007822823223626
9.519807923169267,-0.2892808399523187
9.523809523809524,-0.1289532818266052
9.52781112444978,-0.22854980114041423
9.531812725090036,-0.31390064121390765
9.535814325730293,-0.1900143637908191
9.539815926370549,-0.19995202820762298
9.543817527010805,-0.17009410274209416
9.54781912765106,-0.26395850539362203
9.551820728291316,-0.2273825676738104
9.555822328931573,-0.1771134807365484
9.559823929571829,-0.2692142722849438
9.563825530212085,-0.3113519494217454
9.567827130852342,-0.29340277000710346
9.571828731492598,-0.19274089448258044
9.575830332132854,-0.024026380329399348
9.579831932773109,-0.2763721497732297
9.583833533413365,-0.28224857627741806
9.587835134053622,-0.20269439068915748
9.591836734693878,-0.183131496172868
9.595838335334134,-0.23554587964345142
9.59983993597439,-0.23429046872272608
9.603841536614647,-0.21325055886429872
9.607843137254902,-0.20760568621574385
9.611844737895158,-0.14723611814957238
9.615846338535414,-0.23393932987846106
9.61984793917567,-0.22664570501892012
9.623849539815927,-0.06805939471150438
9.627851140456183,-0.05940590617106922
9.63185274109644,-0.29555492731761446
9.635854341736694,-0.3162933813708685
9.63985594237695,-0.17015380650422468
9.643857543017207,-0.10373957034490296
9.647859143657463,-0.22929796414930145
9.65186074429772,-0.21656044327022445
9.655862344937976,-0.18074086576958176
9.659863945578232,-0.134574969088802
9.663865546218489,-0.23378206254810366
9.667867146858743,-0.08299292859731845
9.671868747499,-0.12218095028127875
9.675870348139256,-0.1504326025918994
9.679871948779512,-0.08932554992929792
9.683873549419769,-0.25274723980266234
9.687875150060025,-0.17865332557614952
9.691876750700281,-0.15376225621950892
9.695878351340536,-0.08631374130649036
9.699879951980792,-0.23695501990240672
9.703881552621048,-0.09244729906584284
9.707883153261305,-0.10148248741913297
9.711884753901561,-0.16708378371333962
9.715886354541817,-0.25803757370140606
9.719887955182074,-0.21180360867599185
9.72388955582233,-0.12655382314120195
9.727891156462585,-0.15542843924421956
9.731892757102841,-0.2617657116015534
9.735894357743097,-0.19487869934767696
9.739895958383354,-0.013530727288624596
9.74389755902361,-0.14359067079361082
9.747899159663866,-0.12317269683291486
9.751900760304123,-0.15782799235727732
9.755902360944377,-0.14873032176682233
9.759903961584634,-0.12108404870652137
9.76390556222489,-0.13742146038853473
9.767907162865146,-0.18284847642795068
9.771908763505403,-0.17017151331456973
9.775910364145659,-0.05146048985911442
9.779911964785915,-0.1808623622866215
9.78391356542617,-0.2086759255512211
9.787915166066426,-0.08249761278323307
9.791916766706683,0.004825356850915008
9.795918367346939,-0.10421940284455748
9.799919967987195,-0.15736521421199307
9.803921568627452,-0.09309741281198115
9.807923169267708,0.01920012019553405
9.811924769907964,-0.07659294573667279
9.815926370548219,-0.2630926489196196
9.819927971188475,-0.07743344907391236
9.823929571828732,-0.039864329103943615
9.827931172468988,-0.10163841344650165
9.831932773109244,-0.12357734933071267
9.8359343737495,-0.10782345948965757
9.839935974389757,-0.003914635402771996
9.843937575030012,0.0499514579904593
9.847939175670268,-0.08059343422997035
9.851940776310524,-0.20887359244974418
9.85594237695078,-0.02467366550962658
9.859943977591037,-0.008560133174961335
9.863945578231293,-0.126246917182914
9.86794717887155,-0.03121022647291114
9.871948779511806,-0.009613167843008544
9.87595038015206,0.0021297661708634466
9.879951980792317,-0.10068354415540215
9.883953581432573,-0.06762912726710613
9.88795518207283,-0.12259599009796204
9.891956782713086,0.039423007633063924
9.895958383353342,-0.13002272341525126
9.899959983993599,-0.13090818924472108
9.903961584633853,-0.07752516937198137
9.90796318527411,0.04287431523555082
9.911964785914366,-0.025508481578076062
9.915966386554622,-0.08643828239093834
9.919967987194878,-0.09729447606527024
9.923969587835135,0.02681438575221393
9.927971188475391,0.00928226097376825
9.931972789115648,-0.02463099765457668
9.935974389755902,-0.0001689080395425209
9.939975990396158,0.06520999503444157
9.943977591036415,-0.05087159179035607
9.947979191676671,-0.1255776121532375
9.951980792316927,-0.10341920355417805
9.955982392957184,-0.06242843385649916
9.95998399359744,0.07131204195411804
9.963985594237695,-0.001790881685918646
9.967987194877951,0.12158797063601401
9.971988795518207,0.3449676614532642
9.975990396158464,0.6421786849454779
9.97999199679872,0.7963287768460093
9.983993597438976,1.0755112650605336
9.987995198079233,1.173618387384975
9.991996798719487,1.1262417319065738
9.995998399359744,0.834161267440373
10.0,0.42880443903316695
