Time,signal
0.0,329
0.004001600640256103,288
0.008003201280512205,240
0.012004801920768308,193
0.01600640256102441,165
0.020008003201280513,157
0.024009603841536616,157
0.028011204481792718,181
0.03201280512204882,197
0.03601440576230493,183
0.040016006402561026,173
0.044017607042817125,214
0.04801920768307323,241
0.05202080832332934,226
0.056022408963585436,213
0.060024009603841535,193
0.06402561024409764,149
0.06802721088435375,108
0.07202881152460985,76
0.07603041216486595,24
0.08003201280512205,-32
0.08403361344537816,-70
0.08803521408563425,-131
0.09203681472589036,-190
0.09603841536614646,-226
0.10004001600640257,-256
0.10404161664665867,-257
0.10804321728691477,-260
0.11204481792717087,-263
0.11604641856742698,-275
0.12004801920768307,-258
0.12404961984793918,-276
0.12805122048819528,-309
0.13205282112845138,-313
0.1360544217687075,-279
0.1400560224089636,-173
0.1440576230492197,59
0.1480592236894758,361
0.1520608243297319,688
0.156062424969988,1058
0.1600640256102441,1161
0.1640656262505002,751
0.16806722689075632,161
0.1720688275310124,-311
0.1760704281712685,-608
0.18007202881152462,-802
0.1840736294517807,-955
0.18807523009203683,-1048
0.19207683073229292,-1045
0.19607843137254902,-906
0.20008003201280514,-734
0.20408163265306123,-614
0.20808323329331735,-484
0.21208483393357344,-333
0.21608643457382953,-146
0.22008803521408565,-22
0.22408963585434175,41
0.22809123649459784,42
0.23209283713485396,52
0.23609443777511005,99
0.24009603841536614,137
0.24409763905562226,152
0.24809923969587835,130
0.25210084033613445,95
0.25610244097639057,103
0.2601040416166467,198
0.26410564225690275,278
0.26810724289715887,293
0.272108843537415,322
0.27611044417767105,372
0.2801120448179272,416
0.2841136454581833,413
0.2881152460984394,359
0.2921168467386955,301
0.2961184473789516,305
0.3001200480192077,336
0.3041216486594638,378
0.3081232492997199,393
0.312124849939976,287
0.3161264505802321,184
0.3201280512204882,120
0.32412965186074433,108
0.3281312525010004,121
0.3321328531412565,213
0.33613445378151263,261
0.3401360544217687,210
0.3441376550620248,191
0.34813925570228094,164
0.352140856342537,125
0.3561424569827931,119
0.36014405762304924,168
0.36414565826330536,190
0.3681472589035614,163
0.37214885954381755,122
0.37615046018407367,42
0.38015206082432973,-10
0.38415366146458585,-11
0.38815526210484197,-22
0.39215686274509803,-56
0.39615846338535415,-119
0.4001600640256103,-168
0.40416166466586634,-209
0.40816326530612246,-249
0.4121648659463786,-262
0.4161664665866347,-261
0.42016806722689076,-253
0.4241696678671469,-255
0.428171268507403,-260
0.43217286914765907,-276
0.4361744697879152,-290
0.4401760704281713,-246
0.44417767106842737,-128
0.4481792717086835,99
0.4521808723489396,405
0.4561824729891957,748
0.4601840736294518,1052
0.4641856742697079,1070
0.468187274909964,645
0.4721888755502201,103
0.4761904761904762,-305
0.4801920768307323,-566
0.4841936774709884,-780
0.4881952781112445,-944
0.49219687875150064,-1025
0.4961984793917567,-1014
0.5002000800320128,-917
0.5042016806722689,-768
0.508203281312525,-598
0.5122048819527811,-449
0.5162064825930373,-327
0.5202080832332934,-218
0.5242096838735495,-124
0.5282112845138055,-59
0.5322128851540616,-24
0.5362144857943177,-2
0.5402160864345739,3
0.54421768707483,11
0.5482192877150861,32
0.5522208883553421,73
0.5562224889955982,97
0.5602240896358543,121
0.5642256902761105,132
0.5682272909163666,155
0.5722288915566227,175
0.5762304921968788,192
0.5802320928371348,226
0.584233693477391,248
0.5882352941176471,249
0.5922368947579032,254
0.5962384953981593,255
0.6002400960384154,230
0.6042416966786714,188
0.6082432973189276,164
0.6122448979591837,157
0.6162464985994398,129
0.6202480992396959,117
0.624249699879952,100
0.6282513005202081,58
0.6322529011604642,8
0.6362545018007203,-4
0.6402561024409764,0
0.6442577030812325,-33
0.6482593037214887,-52
0.6522609043617448,-18
0.6562625050020008,57
0.6602641056422569,90
0.664265706282513,106
0.6682673069227691,105
0.6722689075630253,81
0.6762705082032814,118
0.6802721088435374,149
0.6842737094837935,124
0.6882753101240496,54
0.6922769107643058,-24
0.6962785114045619,-85
0.700280112044818,-141
0.704281712685074,-188
0.7082833133253301,-225
0.7122849139655862,-241
0.7162865146058424,-234
0.7202881152460985,-238
0.7242897158863546,-269
0.7282913165266107,-303
0.7322929171668667,-354
0.7362945178071229,-367
0.740296118447379,-337
0.7442977190876351,-276
0.7482993197278912,-173
0.7523009203681473,13
0.7563025210084033,272
0.7603041216486595,625
0.7643057222889156,979
0.7683073229291717,994
0.7723089235694278,558
0.7763105242096839,35
0.7803121248499401,-407
0.7843137254901961,-727
0.7883153261304522,-943
0.7923169267707083,-1080
0.7963185274109644,-1066
0.8003201280512205,-922
0.8043217286914767,-735
0.8083233293317327,-560
0.8123249299719888,-387
0.8163265306122449,-233
0.820328131252501,-121
0.8243297318927572,-43
0.8283313325330133,26
0.8323329331732694,66
0.8363345338135254,100
0.8403361344537815,156
0.8443377350940376,215
0.8483393357342938,255
0.8523409363745499,243
0.856342537014806,253
0.860344137655062,282
0.8643457382953181,284
0.8683473389355743,282
0.8723489395758304,298
0.8763505402160865,308
0.8803521408563426,360
0.8843537414965986,379
0.8883553421368547,366
0.8923569427771109,368
0.896358543417367,379
0.9003601440576231,401
0.9043617446978792,406
0.9083633453381353,387
0.9123649459783914,365
0.9163665466186475,329
0.9203681472589036,286
0.9243697478991597,259
0.9283713485394158,165
0.932372949179672,133
0.936374549819928,133
0.9403761504601841,149
0.9443777511004402,160
0.9483793517406963,157
0.9523809523809524,135
0.9563825530212086,122
0.9603841536614646,153
0.9643857543017207,189
0.9683873549419768,175
0.9723889555822329,152
0.976390556222489,139
0.9803921568627452,101
0.9843937575030013,40
0.9883953581432573,18
0.9923969587835134,24
0.9963985594237695,21
1.0004001600640255,2
1.0044017607042817,-77
1.0084033613445378,-169
1.012404961984794,-225
1.01640656262505,-224
1.0204081632653061,-248
1.0244097639055623,-288
1.0284113645458184,-267
1.0324129651860745,-278
1.0364145658263306,-330
1.0404161664665867,-401
1.0444177671068429,-432
1.048419367747099,-442
1.0524209683873549,-334
1.056422569027611,-85
1.0604241696678671,248
1.0644257703081232,597
1.0684273709483794,902
1.0724289715886355,1121
1.0764305722288916,947
1.0804321728691477,412
1.0844337735094038,-110
1.08843537414966,-477
1.092436974789916,-726
1.0964385754301722,-924
1.1004401760704283,-1036
1.1044417767106842,-1041
1.1084433773509403,-933
1.1124449779911965,-778
1.1164465786314526,-626
1.1204481792717087,-470
1.1244497799119648,-334
1.128451380552221,-217
1.132452981192477,-119
1.1364545818327332,-43
1.1404561824729893,21
1.1444577831132454,65
1.1484593837535015,135
1.1524609843937577,183
1.1564625850340136,191
1.1604641856742697,166
1.1644657863145258,149
1.168467386954782,183
1.172468987595038,259
1.1764705882352942,337
1.1804721888755503,394
1.1844737895158064,435
1.1884753901560625,456
1.1924769907963186,470
1.1964785914365748,456
1.2004801920768309,421
1.2044817927170868,409
1.208483393357343,427
1.212484993997599,443
1.2164865946378551,434
1.2204881952781113,374
1.2244897959183674,286
1.2284913965586235,218
1.2324929971988796,190
1.2364945978391357,212
1.2404961984793919,222
1.244497799119648,167
1.248499399759904,126
1.2525010004001602,121
1.2565026010404161,138
1.2605042016806722,169
1.2645058023209284,197
1.2685074029611845,205
1.2725090036014406,199
1.2765106042416967,185
1.2805122048819528,170
1.284513805522209,143
1.288515406162465,120
1.2925170068027212,92
1.2965186074429773,64
1.3005202080832334,23
1.3045218087234896,-42
1.3085234093637454,-109
1.3125250100040016,-170
1.3165266106442577,-194
1.3205282112845138,-201
1.32452981192477,-225
1.328531412565026,-247
1.3325330132052822,-263
1.3365346138455383,-268
1.3405362144857944,-267
1.3445378151260505,-289
1.3485394157663066,-326
1.3525410164065628,-326
1.3565426170468189,-269
1.3605442176870748,-142
1.364545818327331,70
1.368547418967587,358
1.3725490196078431,657
1.3765506202480993,946
1.3805522208883554,958
1.3845538215286115,527
1.3885554221688676,-28
1.3925570228091237,-419
1.3965586234493799,-649
1.400560224089636,-827
1.404561824729892,-958
1.408563425370148,-1014
1.4125650260104041,-992
1.4165666266506602,-901
1.4205682272909164,-762
1.4245698279311725,-597
1.4285714285714286,-440
1.4325730292116847,-324
1.4365746298519408,-228
1.440576230492197,-151
1.444577831132453,-104
1.4485794317727092,-77
1.4525810324129653,-62
1.4565826330532214,-34
1.4605842336934773,-10
1.4645858343337335,9
1.4685874349739896,50
1.4725890356142457,102
1.4765906362545018,154
1.480592236894758,244
1.484593837535014,293
1.4885954381752702,315
1.4925970388155263,353
1.4965986394557824,378
1.5006002400960385,370
1.5046018407362947,354
1.5086034413765508,383
1.5126050420168067,397
1.5166066426570628,397
1.520608243297319,383
1.524609843937575,341
1.5286114445778312,269
1.5326130452180873,210
1.5366146458583434,185
1.5406162464985995,160
1.5446178471388556,150
1.5486194477791118,181
1.5526210484193679,220
1.556622649059624,220
1.5606242496998801,215
1.564625850340136,195
1.5686274509803921,168
1.5726290516206483,149
1.5766306522609044,158
1.5806322529011605,166
1.5846338535414166,169
1.5886354541816727,160
1.5926370548219289,143
1.596638655462185,124
1.600640256102441,101
1.6046418567426972,54
1.6086434573829533,7
1.6126450580232095,-47
1.6166466586634654,-98
1.6206482593037215,-146
1.6246498599439776,-181
1.6286514605842337,-205
1.6326530612244898,-230
1.636654661864746,-244
1.640656262505002,-230
1.6446578631452582,-226
1.6486594637855143,-243
1.6526610644257704,-280
1.6566626650660266,-307
1.6606642657062827,-275
1.6646658663465388,-154
1.6686674669867947,60
1.6726690676270508,348
1.676670668267307,676
1.680672268907563,985
1.6846738695478192,1052
1.6886754701880753,654
1.6926770708283314,60
1.6966786714685875,-410
1.7006802721088436,-709
1.7046818727490998,-919
1.708683473389356,-1065
1.712685074029612,-1131
1.716686674669868,-1099
1.720688275310124,-975
1.7246898759503801,-792
1.7286914765906363,-592
1.7326930772308924,-402
1.7366946778711485,-233
1.7406962785114046,-111
1.7446978791516607,-44
1.7486994797919169,-16
1.752701080432173,-9
1.756702681072429,-18
1.7607042817126852,-24
1.7647058823529413,-15
1.7687074829931972,16
1.7727090836334534,47
1.7767106842737095,74
1.7807122849139656,98
1.7847138855542217,116
1.7887154861944778,151
1.792717086834734,213
1.79671868747499,269
1.8007202881152462,312
1.8047218887555023,340
1.8087234893957584,347
1.8127250900360146,346
1.8167266906762707,336
1.8207282913165266,318
1.8247298919567827,303
1.8287314925970388,283
1.832733093237295,233
1.836734693877551,179
1.8407362945178072,150
1.8447378951580633,136
1.8487394957983194,106
1.8527410964385755,77
1.8567426970788317,105
1.8607442977190878,124
1.864745898359344,109
1.8687474989996,61
1.872749099639856,82
1.876750700280112,119
1.8807523009203682,142
1.8847539015606243,161
1.8887555022008804,150
1.8927571028411365,123
1.8967587034813926,115
1.9007603041216488,122
1.9047619047619049,111
1.908763505402161,63
1.9127651060424171,-3
1.9167667066826732,-47
1.9207683073229291,-36
1.9247699079631853,-18
1.9287715086034414,-48
1.9327731092436975,-80
1.9367747098839536,-99
1.9407763105242097,-97
1.9447779111644659,-114
1.948779511804722,-151
1.952781112444978,-172
1.9567827130852342,-194
1.9607843137254903,-216
1.9647859143657465,-170
1.9687875150060026,-41
1.9727891156462585,173
1.9767907162865146,471
1.9807923169267707,789
1.9847939175670268,1122
1.988795518207283,1257
1.992797118847539,924
1.9967987194877952,320
2.000800320128051,-218
2.0048019207683074,-602
2.0088035214085633,-870
2.0128051220488197,-1038
2.0168067226890756,-1091
2.020808323329332,-1016
2.024809923969588,-855
2.028811524609844,-669
2.0328131252501,-488
2.0368147258903564,-312
2.0408163265306123,-196
2.0448179271708686,-160
2.0488195278111245,-141
2.0528211284513804,-114
2.0568227290916368,-68
2.0608243297318927,-1
2.064825930372149,36
2.068827531012405,36
2.0728291316526612,13
2.076830732292917,-20
2.0808323329331735,-14
2.0848339335734294,24
2.0888355342136857,71
2.0928371348539416,114
2.096838735494198,142
2.100840336134454,155
2.1048419367747098,192
2.108843537414966,238
2.112845138055222,226
2.1168467386954783,249
2.1208483393357342,305
2.1248499399759906,307
2.1288515406162465,278
2.132853141256503,240
2.1368547418967587,176
2.140856342537015,120
2.144857943177271,98
2.1488595438175273,85
2.152861144457783,93
2.156862745098039,99
2.1608643457382954,72
2.1648659463785513,87
2.1688675470188077,121
2.1728691476590636,130
2.17687074829932,127
2.180872348939576,118
2.184873949579832,110
2.188875550220088,123
2.1928771508603444,143
2.1968787515006003,155
2.2008803521408566,109
2.2048819527811125,84
2.2088835534213684,64
2.212885154061625,14
2.2168867547018807,-16
2.220888355342137,-91
2.224889955982393,-165
2.2288915566226493,-187
2.232893157262905,-258
2.2368947579031615,-328
2.2408963585434174,-353
2.2448979591836737,-333
2.2488995598239296,-297
2.252901160464186,-269
2.256902761104442,-250
2.2609043617446978,-237
2.264905962384954,-276
2.26890756302521,-287
2.2729091636654664,-196
2.2769107643057223,-2
2.2809123649459786,264
2.2849139655862345,572
2.288915566226491,896
2.2929171668667467,1132
2.296918767507003,962
2.300920368147259,436
2.3049219687875153,-80
2.308923569427771,-466
2.312925170068027,-739
2.3169267707082835,-927
2.3209283713485394,-1009
2.3249299719887957,-1001
2.3289315726290516,-923
2.332933173269308,-799
2.336934773909564,-661
2.34093637454982,-475
2.344937975190076,-262
2.3489395758303324,-120
2.3529411764705883,-46
2.356942777110844,10
2.3609443777511006,36
2.3649459783913565,49
2.368947579031613,55
2.3729491796718687,83
2.376950780312125,122
2.380952380952381,159
2.3849539815926373,181
2.388955582232893,183
2.3929571828731495,191
2.3969587835134054,223
2.4009603841536618,249
2.4049619847939177,281
2.4089635854341735,311
2.41296518607443,340
2.416966786714686,363
2.420968387354942,387
2.424969987995198,381
2.4289715886354544,346
2.4329731892757103,316
2.4369747899159666,298
2.4409763905562225,288
2.444977991196479,281
2.4489795918367347,263
2.452981192476991,235
2.456982793117247,202
2.460984393757503,168
2.4649859943977592,122
2.468987595038015,79
2.4729891956782715,61
2.4769907963185274,72
2.4809923969587837,98
2.4849939975990396,159
2.488995598239296,206
2.492997198879552,217
2.496998799519808,209
2.501000400160064,178
2.5050020008003204,137
2.5090036014405763,110
2.5130052020808322,76
2.5170068027210886,37
2.5210084033613445,4
2.525010004001601,-15
2.5290116046418567,-60
2.533013205282113,-127
2.537014805922369,-193
2.5410164065626253,-260
2.545018007202881,-325
2.5490196078431375,-366
2.5530212084833934,-375
2.5570228091236498,-341
2.5610244097639057,-300
2.5650260104041616,-291
2.569027611044418,-337
2.573029211684674,-384
2.57703081232493,-352
2.581032412965186,-237
2.5850340136054424,-22
2.5890356142456983,261
2.5930372148859546,600
2.5970388155262105,930
2.601040416166467,1023
2.6050420168067228,641
2.609043617446979,82
2.613045218087235,-368
2.617046818727491,-703
2.6210484193677472,-905
2.625050020008003,-992
2.6290516206482595,-1012
2.6330532212885154,-963
2.6370548219287717,-838
2.6410564225690276,-653
2.645058023209284,-465
2.64905962384954,-330
2.653061224489796,-239
2.657062825130052,-151
2.6610644257703084,-76
2.6650660264105643,-43
2.6690676270508202,-33
2.6730692276910766,0
2.6770708283313325,29
2.681072428971589,29
2.6850740296118447,58
2.689075630252101,155
2.693077230892357,231
2.6970788315326133,259
2.701080432172869,262
2.7050820328131255,295
2.7090836334533814,368
2.7130852340936378,443
2.7170868347338937,481
2.7210884353741496,492
2.725090036014406,479
2.729091636654662,451
2.733093237294918,431
2.737094837935174,380
2.7410964385754304,358
2.7450980392156863,388
2.7490996398559426,424
2.7531012404961985,403
2.757102841136455,352
2.7611044417767108,314
2.765106042416967,272
2.769107643057223,215
2.773109243697479,220
2.7771108443377353,271
2.781112444977991,305
2.7851140456182475,319
2.7891156462585034,294
2.7931172468987597,272
2.7971188475390156,264
2.801120448179272,271
2.805122048819528,271
2.809123649459784,260
2.81312525010004,211
2.817126850740296,170
2.8211284513805523,139
2.8251300520208082,108
2.8291316526610646,51
2.8331332533013205,-18
2.837134853941577,-64
2.8411364545818327,-101
2.845138055222089,-155
2.849139655862345,-184
2.8531412565026013,-165
2.857142857142857,-121
2.8611444577831135,-96
2.8651460584233694,-98
2.8691476590636253,-132
2.8731492597038817,-199
2.8771508603441376,-247
2.881152460984394,-221
2.88515406162465,-121
2.889155662264906,24
2.893157262905162,229
2.8971588635454184,500
2.9011604641856743,809
2.9051620648259306,1003
2.9091636654661865,780
2.913165266106443,249
2.917166866746699,-235
2.9211684673869547,-585
2.925170068027211,-824
2.929171668667467,-997
2.9331732693077233,-1073
2.937174869947979,-1048
2.9411764705882355,-940
2.9451780712284914,-783
2.9491796718687477,-643
2.9531812725090036,-544
2.95718287314926,-464
2.961184473789516,-408
2.9651860744297722,-359
2.969187675070028,-320
2.973189275710284,-287
2.9771908763505404,-271
2.9811924769907963,-268
2.9851940776310526,-257
2.9891956782713085,-236
2.993197278911565,-225
2.9971988795518207,-199
3.001200480192077,-160
3.005202080832333,-124
3.0092036814725893,-78
3.013205282112845,-30
3.0172068827531016,24
3.0212084833933575,82
3.0252100840336134,138
3.0292116846738697,177
3.0332132853141256,188
3.037214885954382,190
3.041216486594638,184
3.045218087234894,181
3.04921968787515,179
3.0532212885154064,155
3.0572228891556623,103
3.0612244897959187,82
3.0652260904361746,45
3.069227691076431,-7
3.073229291716687,-41
3.0772308923569427,-38
3.081232492997199,-25
3.085234093637455,-22
3.0892356942777113,6
3.093237294917967,38
3.0972388955582235,51
3.1012404961984794,63
3.1052420968387358,77
3.1092436974789917,52
3.113245298119248,7
3.117246898759504,-12
3.1212484993997602,-13
3.125250100040016,-55
3.129251700680272,-133
3.1332533013205284,-219
3.1372549019607843,-273
3.1412565026010406,-280
3.1452581032412965,-288
3.149259703881553,-298
3.1532613045218087,-277
3.157262905162065,-255
3.161264505802321,-278
3.1652661064425773,-275
3.1692677070828332,-240
3.1732693077230896,-228
3.1772709083633455,-214
3.1812725090036014,-209
3.1852741096438577,-197
3.1892757102841136,-112
3.19327731092437,49
3.197278911564626,245
3.201280512204882,448
3.205282112845138,681
3.2092837134853944,945
3.2132853141256503,900
3.2172869147659067,394
3.2212885154061626,-118
3.225290116046419,-433
3.229291716686675,-685
3.2332933173269307,-872
3.237294917967187,-943
3.241296518607443,-910
3.2452981192476993,-831
3.249299719887955,-717
3.2533013205282115,-604
3.2573029211684674,-511
3.2613045218087238,-334
3.2653061224489797,-149
3.269307723089236,20
3.273309323729492,117
3.2773109243697482,176
3.281312525010004,198
3.28531412565026,213
3.2893157262905164,269
3.2933173269307723,262
3.2973189275710286,224
3.3013205282112845,246
3.305322128851541,232
3.3093237294917968,279
3.313325330132053,389
3.317326930772309,444
3.3213285314125653,453
3.3253301320528212,459
3.3293317326930776,430
3.3333333333333335,431
3.3373349339735894,487
3.3413365346138457,510
3.3453381352541016,467
3.349339735894358,418
3.353341336534614,390
3.35734293717487,333
3.361344537815126,237
3.3653461384553824,187
3.3693477390956383,147
3.3733493397358947,114
3.3773509403761506,111
3.3813525410164065,145
3.385354141656663,163
3.3893557422969187,171
3.393357342937175,180
3.397358943577431,176
3.4013605442176873,209
3.405362144857943,264
3.4093637454981995,285
3.4133653461384554,249
3.417366946778712,196
3.4213685474189677,149
3.425370148059224,100
3.42937174869948,66
3.433373349339736,23
3.437374949979992,-30
3.441376550620248,-91
3.4453781512605044,-141
3.4493797519007603,-177
3.4533813525410166,-236
3.4573829531812725,-301
3.461384553821529,-342
3.4653861544617848,-337
3.469387755102041,-298
3.473389355742297,-276
3.4773909563825534,-279
3.4813925570228093,-302
3.485394157663065,-319
3.4893957583033215,-282
3.4933973589435774,-248
3.4973989595838337,-172
3.5014005602240896,-28
3.505402160864346,192
3.509403761504602,470
3.513405362144858,768
3.517406962785114,981
3.5214085634253705,791
3.5254101640656264,241
3.5294117647058827,-265
3.5334133653461386,-603
3.5374149659863945,-837
3.541416566626651,-1012
3.5454181672669067,-1113
3.549419767907163,-1117
3.553421368547419,-1026
3.5574229691876753,-856
3.561424569827931,-691
3.5654261704681876,-571
3.5694277711084434,-504
3.5734293717487,-368
3.5774309723889557,-126
3.581432573029212,47
3.585434173669468,128
3.589435774309724,186
3.59343737494998,223
3.597438975590236,254
3.6014405762304924,293
3.6054421768707483,348
3.6094437775110046,399
3.6134453781512605,394
3.617446978791517,381
3.621448579431773,406
3.625450180072029,420
3.629451780712285,408
3.6334533813525414,423
3.6374549819927973,437
3.641456582633053,429
3.6454581832733095,431
3.6494597839135654,436
3.6534613845538217,393
3.6574629851940776,316
3.661464585834334,293
3.66546618647459,310
3.6694677871148462,289
3.673469387755102,204
3.6774709883953585,123
3.6814725890356144,82
3.6854741896758707,84
3.6894757903161266,93
3.6934773909563825,87
3.697478991596639,92
3.7014805922368947,106
3.705482192877151,130
3.709483793517407,147
3.7134853941576633,125
3.717486994797919,97
3.7214885954381756,90
3.7254901960784315,79
3.729491796718688,70
3.7334933973589437,53
3.7374949979992,46
3.741496598639456,36
3.745498199279712,21
3.749499799919968,-9
3.753501400560224,-57
3.7575030012004804,-101
3.7615046018407363,-111
3.7655062024809927,-129
3.7695078031212486,-159
3.773509403761505,-226
3.777511004401761,-266
3.781512605042017,-272
3.785514205682273,-307
3.7895158063225294,-362
3.7935174069627853,-442
3.797519007603041,-516
3.8015206082432975,-518
3.8055222088835534,-450
3.8095238095238098,-300
3.8135254101640657,-79
3.817527010804322,151
3.821528611444578,410
3.8255302120848342,625
3.82953181272509,509
3.8335334133653465,103
3.8375350140056024,-290
3.8415366146458583,-593
3.8455382152861146,-810
3.8495398159263705,-970
3.853541416566627,-1083
3.8575430172068828,-1071
3.861544617847139,-954
3.865546218487395,-805
3.8695478191276513,-650
3.8735494197679072,-509
3.8775510204081636,-387
3.8815526210484195,-276
3.885554221688676,-184
3.8895558223289317,-106
3.8935574229691876,-45
3.897559023609444,6
3.9015606242497,42
3.905562224889956,65
3.909563825530212,78
3.9135654261704684,70
3.9175670268107243,72
3.9215686274509807,89
3.9255702280912366,120
3.929571828731493,171
3.933573429371749,202
3.937575030012005,220
3.941576630652261,249
3.945578231292517,271
3.9495798319327733,278
3.953581432573029,300
3.9575830332132855,343
3.9615846338535414,338
3.9655862344937978,327
3.9695878351340537,334
3.97358943577431,301
3.977591036414566,250
3.9815926370548222,211
3.985594237695078,199
3.9895958383353345,173
3.9935974389755904,145
3.9975990396158463,146
4.001600640256102,149
4.0056022408963585,156
4.009603841536615,161
4.013605442176871,170
4.017607042817127,192
4.021608643457383,202
4.025610244097639,192
4.029611844737896,166
4.033613445378151,160
4.0376150460184075,137
4.041616646658664,84
4.04561824729892,33
4.049619847939176,-14
4.053621448579432,-35
4.057623049219688,-42
4.061624649859944,-68
4.0656262505002,-107
4.069627851140456,-157
4.073629451780713,-207
4.077631052420968,-229
4.081632653061225,-202
4.085634253701481,-158
4.089635854341737,-144
4.093637454981993,-136
4.097639055622249,-148
4.101640656262505,-197
4.105642256902761,-214
4.109643857543017,-161
4.1136454581832735,-6
4.11764705882353,244
4.121648659463785,565
4.125650260104042,894
4.129651860744298,1170
4.133653461384554,1131
4.13765506202481,621
4.141656662665066,33
4.1456582633053225,-347
4.149659863945578,-582
4.153661464585834,-746
4.157663065226091,-859
4.161664665866347,-901
4.165666266506602,-850
4.169667867146859,-746
4.173669467787115,-618
4.1776710684273715,-451
4.181672669067627,-276
4.185674269707883,-142
4.18967587034814,-58
4.193677470988396,15
4.197679071628651,76
4.201680672268908,94
4.205682272909164,102
4.2096838735494195,142
4.213685474189676,179
4.217687074829932,233
4.221688675470189,293
4.225690276110444,293
4.2296918767507,240
4.233693477390957,226
4.237695078031213,344
4.2416966786714685,474
4.245698279311725,560
4.249699879951981,622
4.253701480592237,662
4.257703081232493,722
4.261704681872749,715
4.265706282513006,699
4.269707883153261,681
4.2737094837935174,657
4.277711084433774,636
4.28171268507403,629
4.285714285714286,569
4.289715886354542,448
4.293717486994798,368
4.297719087635055,343
4.30172068827531,369
4.305722288915566,367
4.309723889555823,314
4.313725490196078,316
4.3177270908363345,302
4.321728691476591,260
4.325730292116847,238
4.329731892757103,266
4.333733493397359,214
4.337735094037615,136
4.341736694677872,119
4.345738295318127,87
4.3497398959583835,76
4.35374149659864,65
4.357743097238895,1
4.361744697879152,-2
4.365746298519408,-31
4.369747899159664,-73
4.37374949979992,-83
4.377751100440176,-196
4.3817527010804325,-305
4.385754301720689,-291
4.389755902360944,-219
4.393757503001201,-255
4.397759103641457,-292
4.401760704281713,-307
4.405762304921969,-367
4.409763905562225,-280
4.413765506202481,-171
4.417767106842737,-40
4.421768707482993,150
4.42577030812325,477
4.429771908763506,825
4.433773509403761,1126
4.437775110044018,1136
4.441776710684274,713
4.44577831132453,59
4.449779911964786,-462
4.453781512605042,-791
4.4577831132452985,-1009
4.461784713885554,-1111
4.46578631452581,-1146
4.469787915166067,-1051
4.473789515806323,-1006
4.4777911164465785,-977
4.481792717086835,-798
4.485794317727091,-681
4.4897959183673475,-590
4.493797519007603,-469
4.497799119647859,-289
4.501800720288116,-235
4.505802320928372,-266
4.509803921568627,-256
4.513805522208884,-217
4.51780712284914,-165
4.5218087234893956,-147
4.525810324129652,-103
4.529811924769908,-62
4.533813525410165,-54
4.53781512605042,-98
4.541816726690676,-124
4.545818327330933,-81
4.549819927971189,0
4.5538215286114445,63
4.557823129251701,119
4.561824729891957,121
4.565826330532213,50
4.569827931172469,15
4.573829531812725,20
4.577831132452982,16
4.581832733093237,17
4.5858343337334935,0
4.58983593437375,-25
4.593837535014006,-36
4.597839135654262,-61
4.601840736294518,-132
4.605842336934774,-183
4.609843937575031,-188
4.613845538215286,-160
4.617847138855542,-141
4.621848739495799,-139
4.625850340136054,-117
4.629851940776311,-99
4.633853541416567,-61
4.637855142056823,-9
4.641856742697079,15
4.645858343337335,16
4.649859943977591,-6
4.653861544617848,9
4.657863145258103,18
4.6618647458983595,0
4.665866346538616,-47
4.669867947178871,-126
4.673869547819128,-203
4.677871148459384,-258
4.68187274909964,-286
4.685874349739896,-306
4.689875950380152,-330
4.6938775510204085,-330
4.697879151660665,-288
4.70188075230092,-247
4.705882352941177,-242
4.709883953581433,-278
4.713885554221688,-309
4.717887154861945,-297
4.721888755502201,-217
4.7258903561424574,-59
4.729891956782713,183
4.733893557422969,509
4.737895158063226,846
4.741896758703482,1131
4.745898359343737,1081
4.749899959983994,565
4.75390156062425,-39
4.757903161264506,-487
4.761904761904762,-769
4.765906362545018,-950
4.7699079631852745,-1085
4.77390956382553,-1145
4.777911164465786,-1081
4.781912765106043,-915
4.785914365746299,-751
4.7899159663865545,-605
4.793917567026811,-453
4.797919167667067,-306
4.8019207683073235,-210
4.805922368947579,-115
4.809923969587835,-27
4.813925570228092,14
4.817927170868347,51
4.821928771508603,104
4.82593037214886,149
4.829931972789116,186
4.833933573429372,211
4.837935174069628,222
4.841936774709884,234
4.845938375350141,248
4.849939975990396,253
4.853941576630652,286
4.857943177270909,334
4.861944777911165,364
4.8659463785514205,378
4.869947979191677,371
4.873949579831933,361
4.877951180472189,361
4.881952781112445,366
4.885954381752701,361
4.889955982392958,325
4.893957583033213,290
4.8979591836734695,245
4.901960784313726,209
4.905962384953982,187
4.909963985594238,173
4.913965586234494,164
4.91796718687475,155
4.921968787515006,111
4.925970388155262,83
4.9299719887955185,107
4.933973589435775,160
4.93797519007603,181
4.941976790716287,191
4.945978391356543,193
4.949979991996799,203
4.953981592637055,190
4.957983193277311,145
4.961984793917567,111
4.965986394557824,99
4.969987995198079,58
4.9739895958383356,-21
4.977991196478592,-113
4.981992797118847,-182
4.985994397759104,-220
4.98999599839936,-233
4.993997599039616,-266
4.997999199679872,-346
5.002000800320128,-400
5.0060024009603845,-380
5.010004001600641,-315
5.014005602240896,-283
5.018007202881153,-300
5.022008803521409,-310
5.0260104041616644,-270
5.030012004801921,-150
5.034013605442177,22
5.0380152060824335,226
5.042016806722689,521
5.046018407362945,864
5.050020008003202,1015
5.054021608643458,716
5.058023209283713,190
5.06202480992397,-277
5.066026410564226,-658
5.070028011204482,-885
5.074029611844738,-941
5.078031212484994,-919
5.082032813125251,-829
5.086034413765506,-695
5.090036014405762,-549
5.094037615046019,-394
5.098039215686275,-241
5.1020408163265305,-109
5.106042416966787,16
5.110044017607043,100
5.1140456182472995,98
5.118047218887555,92
5.122048819527811,134
5.126050420168068,199
5.130052020808323,251
5.1340536214485795,299
5.138055222088836,309
5.142056822729092,278
5.146058423369348,261
5.150060024009604,265
5.15406162464986,296
5.158063225290117,344
5.162064825930372,374
5.166066426570628,368
5.170068027210885,401
5.17406962785114,475
5.178071228491397,555
5.182072829131653,583
5.186074429771909,545
5.190076030412165,508
5.194077631052421,471
5.198079231692677,414
5.202080832332934,362
5.206082432973189,318
5.2100840336134455,302
5.214085634253702,333
5.218087234893958,375
5.222088835534214,362
5.22609043617447,323
5.230092036814726,279
5.234093637454982,270
5.238095238095238,292
5.2420968387354945,323
5.246098439375751,322
5.250100040016006,279
5.254101640656263,226
5.258103241296519,189
5.262104841936775,161
5.266106442577031,133
5.270108043217287,98
5.274109643857543,60
5.278111244497799,21
5.282112845138055,-37
5.286114445778312,-126
5.290116046418568,-206
5.294117647058823,-240
5.29811924769908,-261
5.302120848339336,-245
5.306122448979592,-214
5.310124049619848,-195
5.314125650260104,-199
5.3181272509003605,-208
5.322128851540617,-241
5.326130452180872,-281
5.330132052821129,-248
5.334133653461385,-124
5.3381352541016405,91
5.342136854741897,352
5.346138455382153,606
5.3501400560224095,836
5.354141656662665,918
5.358143257302921,582
5.362144857943178,31
5.366146458583434,-414
5.370148059223689,-718
5.374149659863946,-928
5.378151260504202,-1072
5.382152861144458,-1133
5.386154461784714,-1096
5.39015606242497,-980
5.394157663065227,-818
5.398159263705482,-641
5.402160864345738,-477
5.406162464985995,-336
5.410164065626251,-233
5.4141656662665065,-175
5.418167266906763,-133
5.422168867547019,-110
5.4261704681872756,-96
5.430172068827531,-72
5.434173669467787,-52
5.438175270108044,-30
5.442176870748299,4
5.4461784713885555,54
5.450180072028812,95
5.454181672669068,136
5.458183273309324,188
5.46218487394958,244
5.466186474589836,314
5.470188075230093,347
5.474189675870348,343
5.4781912765106044,316
5.482192877150861,314
5.486194477791116,340
5.490196078431373,348
5.494197679071629,331
5.498199279711885,299
5.502200880352141,274
5.506202480992397,242
5.510204081632653,186
5.51420568227291,135
5.518207282913165,79
5.5222088835534215,40
5.526210484193678,10
5.530212084833934,-10
5.53421368547419,-48
5.538215286114446,-87
5.542216886754702,-119
5.546218487394958,-105
5.550220088035214,-60
5.5542216886754705,-27
5.558223289315727,-12
5.562224889955982,-18
5.566226490596239,-52
5.570228091236495,-110
5.574229691876751,-147
5.578231292517007,-151
5.582232893157263,-168
5.5862344937975195,-217
5.590236094437775,-258
5.594237695078031,-308
5.598239295718288,-389
5.602240896358544,-481
5.606242496998799,-503
5.610244097639056,-450
5.614245698279312,-374
5.618247298919568,-326
5.622248899559824,-304
5.62625050020008,-329
5.630252100840337,-339
5.634253701480592,-314
5.638255302120848,-239
5.642256902761105,-43
5.646258503401361,207
5.6502601040416165,486
5.654261704681873,749
5.658263305322129,917
5.6622649059623855,687
5.666266506602641,174
5.670268107242897,-284
5.674269707883154,-603
5.67827130852341,-807
5.6822729091636655,-923
5.686274509803922,-988
5.690276110444178,-987
5.694277711084434,-930
5.69827931172469,-803
5.702280912364946,-622
5.706282513005203,-392
5.710284113645458,-193
5.714285714285714,-115
5.718287314925971,-77
5.722288915566227,-23
5.7262905162064826,73
5.730292116846739,205
5.734293717486995,242
5.738295318127251,224
5.742296918767507,177
5.746298519407763,151
5.75030012004802,175
5.754301720688275,198
5.7583033213285315,260
5.762304921968788,335
5.766306522609044,400
5.7703081232493,410
5.774309723889556,420
5.778311324529812,392
5.782312925170069,400
5.786314525810324,428
5.7903161264505805,399
5.794317727090837,340
5.798319327731092,289
5.802320928371349,304
5.806322529011605,299
5.810324129651861,281
5.814325730292117,278
5.818327330932373,206
5.822328931572629,93
5.826330532212886,59
5.830332132853141,84
5.834333733493398,140
5.838335334133654,127
5.842336934773909,72
5.846338535414166,37
5.850340136054422,79
5.854341736694678,137
5.858343337334934,190
5.86234493797519,232
5.8663465386154465,188
5.870348139255703,119
5.874349739895958,81
5.878351340536215,41
5.882352941176471,48
5.886354541816727,40
5.890356142456983,-17
5.894357743097239,-85
5.8983593437374955,-151
5.902360944377751,-163
5.906362545018007,-187
5.910364145658264,-252
5.91436574629852,-277
5.918367346938775,-261
5.922368947579032,-239
5.926370548219288,-253
5.9303721488595444,-267
5.9343737494998,-267
5.938375350140056,-247
5.942376950780313,-187
5.946378551420568,-84
5.950380152060824,76
5.954381752701081,344
5.958383353341337,709
5.9623849539815925,1055
5.966386554621849,1086
5.970388155262105,604
5.9743897559023615,-12
5.978391356542617,-455
5.982392957182873,-705
5.98639455782313,-861
5.990396158463386,-966
5.9943977591036415,-990
5.998399359743898,-950
6.002400960384154,-863
6.00640256102441,-728
6.010404161664666,-547
6.014405762304922,-360
6.018407362945179,-215
6.022408963585434,-116
6.02641056422569,-56
6.030412164865947,-17
6.034413765506203,46
6.038415366146459,110
6.042416966786715,156
6.046418567426971,169
6.050420168067227,146
6.054421768707483,128
6.058423369347739,141
6.062424969987996,164
6.066426570628251,178
6.0704281712685075,212
6.074429771908764,280
6.07843137254902,321
6.082432973189276,321
6.086434573829532,327
6.090436174469788,356
6.094437775110045,388
6.0984393757503,368
6.1024409763905565,332
6.106442577030813,296
6.110444177671068,231
6.114445778311325,175
6.118447378951581,186
6.122448979591837,194
6.126450580232093,177
6.130452180872349,161
6.1344537815126055,153
6.138455382152862,128
6.142456982793117,105
6.146458583433374,97
6.15046018407363,77
6.154461784713885,84
6.158463385354142,146
6.162464985994398,191
6.166466586634654,224
6.17046818727491,215
6.174469787915166,160
6.1784713885554225,123
6.182472989195679,113
6.186474589835934,97
6.190476190476191,43
6.194477791116447,-36
6.1984793917567025,-103
6.202480992396959,-146
6.206482593037215,-174
6.2104841936774715,-196
6.214485794317727,-231
6.218487394957983,-266
6.22248899559824,-280
6.226490596238496,-284
6.230492196878751,-297
6.234493797519008,-302
6.238495398159264,-330
6.2424969987995205,-382
6.246498599439776,-409
6.250500200080032,-365
6.254501800720289,-253
6.258503401360544,-61
6.2625050020008,212
6.266506602641057,530
6.270508203281313,883
6.2745098039215685,1038
6.278511404561825,706
6.282513005202081,131
6.286514605842338,-354
6.290516206482593,-674
6.294517807122849,-901
6.298519407763106,-1067
6.302521008403361,-1134
6.3065226090436175,-1098
6.310524209683874,-999
6.31452581032413,-869
6.318527410964386,-722
6.322529011604642,-553
6.326530612244898,-386
6.330532212885155,-243
6.33453381352541,-150
6.3385354141656665,-84
6.342537014805923,-29
6.346538615446179,18
6.350540216086435,47
6.354541816726691,102
6.358543417366947,138
6.362545018007203,129
6.366546618647459,96
6.370548219287715,93
6.374549819927972,93
6.378551420568227,99
6.382553021208484,143
6.38655462184874,230
6.390556222488996,278
6.394557823129252,283
6.398559423769508,303
6.402561024409764,382
6.40656262505002,480
6.410564225690276,549
6.4145658263305325,585
6.418567426970789,564
6.422569027611044,501
6.426570628251301,462
6.430572228891557,440
6.434573829531813,399
6.438575430172069,363
6.442577030812325,341
6.4465786314525815,323
6.450580232092838,315
6.454581832733093,323
6.45858343337335,352
6.462585034013606,366
6.466586634653861,368
6.470588235294118,350
6.474589835934374,327
6.47859143657463,299
6.482593037214886,271
6.486594637855142,243
6.490596238495399,218
6.494597839135655,202
6.49859943977591,170
6.502601040416167,143
6.506602641056423,113
6.5106042416966785,51
6.514605842336935,-10
6.518607442977191,-30
6.5226090436174475,-50
6.526610644257703,-67
6.530612244897959,-65
6.534613845538216,-63
6.538615446178472,-65
6.5426170468187275,-99
6.546618647458984,-168
6.55062024809924,-213
6.5546218487394965,-199
6.558623449379752,-93
6.562625050020008,109
6.566626650660265,384
6.57062825130052,690
6.574629851940776,989
6.578631452581033,1095
6.582633053221289,1094
6.586634653861545,291
6.590636254501801,-193
6.594637855142057,-585
6.598639455782314,-853
6.602641056422569,-1008
6.606642657062825,-1062
6.610644257703082,-1021
6.614645858343337,-922
6.6186474589835935,-795
6.62264905962385,-619
6.626650660264106,-428
6.630652260904362,-266
6.634653861544618,-116
6.638655462184874,-1
6.642657062825131,64
6.646658663465386,101
6.6506602641056425,119
6.654661864745899,118
6.658663465386155,117
6.662665066026411,134
6.666666666666667,155
6.670668267306923,186
6.674669867947179,220
6.678671468587435,258
6.682673069227691,296
6.686674669867948,331
6.690676270508203,353
6.69467787114846,387
6.698679471788716,405
6.702681072428972,419
6.706682673069228,436
6.710684273709484,456
6.71468587434974,468
6.718687474989996,418
6.722689075630252,359
6.7266906762705085,322
6.730692276910765,278
6.73469387755102,230
6.738695478191277,197
6.742697078831533,161
6.746698679471789,97
6.750700280112045,16
6.754701880752301,-7
6.7587034813925575,18
6.762705082032813,49
6.766706682673069,79
6.770708283313326,115
6.774709883953582,132
6.778711484593837,128
6.782713085234094,88
6.78671468587435,70
6.7907162865146065,82
6.794717887154862,81
6.798719487795118,85
6.802721088435375,76
6.806722689075631,33
6.810724289715886,-42
6.814725890356143,-94
6.818727490996399,-128
6.8227290916366545,-166
6.826730692276911,-149
6.830732292917167,-161
6.834733893557424,-221
6.838735494197679,-276
6.842737094837935,-278
6.846738695478192,-268
6.850740296118448,-252
6.8547418967587035,-252
6.85874349739896,-254
6.862745098039216,-187
6.866746698679472,-29
6.870748299319728,176
6.874749899959984,439
6.878751500600241,733
6.882753101240496,993
6.8867547018807524,896
6.890756302521009,382
6.894757903161265,-152
6.898759503801521,-521
6.902761104441777,-781
6.906762705082033,-948
6.91076430572229,-1050
6.914765906362545,-1050
6.918767507002801,-991
6.922769107643058,-881
6.926770708283313,-746
6.9307723089235695,-598
6.934773909563826,-397
6.938775510204082,-255
6.942777110844338,-165
6.946778711484594,-153
6.95078031212485,-152
6.954781912765107,-145
6.958783513405362,-91
6.9627851140456185,-22
6.966786714685875,51
6.97078831532613,52
6.974789915966387,-32
6.978791516606643,-52
6.982793117246899,-53
6.986794717887155,-42
6.990796318527411,4
6.9947979191676675,66
6.998799519807924,58
7.002801120448179,47
7.006802721088436,130
7.010804321728692,220
7.014805922368948,219
7.018807523009204,192
7.02280912364946,171
7.026810724289716,152
7.030812324929972,160
7.034813925570228,149
7.038815526210485,62
7.042817126850741,-14
7.046818727490996,-65
7.050820328131253,-69
7.054821928771509,-17
7.058823529411765,29
7.062825130052021,-12
7.066826730692277,-45
7.0708283313325335,-45
7.074829931972789,19
7.078831532613045,73
7.082833133253302,75
7.086834733893558,94
7.0908363345338135,102
7.09483793517407,90
7.098839535814326,51
7.1028411364545825,-31
7.106842737094838,-50
7.110844337735094,-23
7.114845938375351,-80
7.118847539015607,-131
7.122849139655862,-173
7.126850740296119,-216
7.130852340936375,-271
7.1348539415766306,-280
7.138855542216887,-303
7.142857142857143,-312
7.1468587434974,-303
7.150860344137655,-311
7.154861944777911,-328
7.158863545418168,-350
7.162865146058424,-345
7.1668667466986795,-252
7.170868347338936,-129
7.174869947979192,31
7.178871548619448,309
7.182873149259704,701
7.18687474989996,1057
7.190876350540217,1162
7.194877951180472,807
7.1988795518207285,229
7.202881152460985,-256
7.206882753101241,-589
7.210884353741497,-806
7.214885954381753,-938
7.218887555022009,-1003
7.222889155662265,-984
7.226890756302521,-894
7.230892356942777,-757
7.234893957583034,-622
7.238895558223289,-488
7.242897158863546,-355
7.246898759503802,-243
7.250900360144058,-150
7.254901960784314,-87
7.25890356142457,-43
7.262905162064826,-3
7.266906762705083,18
7.270908363345338,22
7.2749099639855945,46
7.278911564625851,82
7.282913165266106,106
7.286914765906363,147
7.290916366546619,178
7.294917967186875,200
7.298919567827131,224
7.302921168467387,247
7.3069227691076435,287
7.3109243697479,327
7.314925970388155,367
7.318927571028412,371
7.322929171668668,356
7.326930772308923,331
7.33093237294918,274
7.334933973589436,228
7.3389355742296924,204
7.342937174869948,192
7.346938775510204,165
7.350940376150461,143
7.354941976790717,113
7.358943577430972,59
7.362945178071229,30
7.366946778711485,26
7.370948379351741,25
7.374949979991997,43
7.378951580632253,79
7.3829531812725095,118
7.386954781912765,130
7.390956382553021,104
7.394957983193278,72
7.398959583833534,83
7.4029611844737895,88
7.406962785114046,84
7.410964385754302,63
7.4149659863945585,26
7.418967587034814,-17
7.42296918767507,-54
7.426970788315327,-109
7.430972388955582,-182
7.434973989595838,-232
7.438975590236095,-274
7.442977190876351,-287
7.446978791516607,-264
7.450980392156863,-262
7.454981992797119,-274
7.458983593437376,-300
7.462985194077631,-337
7.466986794717887,-369
7.470988395358144,-391
7.4749899959984,-366
7.4789915966386555,-230
7.482993197278912,18
7.486994797919168,361
7.490996398559424,706
7.49499799919968,977
7.498999599839936,1006
7.503001200480193,625
7.507002801120448,56
7.5110044017607045,-399
7.515006002400961,-644
7.519007603041217,-771
7.523009203681473,-898
7.527010804321729,-996
7.531012404961985,-990
7.535014005602241,-902
7.539015606242497,-792
7.5430172068827535,-630
7.54701880752301,-462
7.551020408163265,-345
7.555022008803522,-272
7.559023609443778,-198
7.563025210084034,-101
7.56702681072429,-26
7.571028411364546,10
7.575030012004802,26
7.579031612645059,71
7.583033213285314,138
7.5870348139255706,132
7.591036414565827,96
7.595038015206082,166
7.599039615846339,282
7.603041216486595,371
7.607042817126851,455
7.611044417767107,513
7.615046018407363,524
7.6190476190476195,524
7.623049219687876,527
7.627050820328131,531
7.631052420968388,517
7.635054021608644,498
7.6390556222488994,472
7.643057222889156,440
7.647058823529412,449
7.6510604241696685,438
7.655062024809924,397
7.65906362545018,330
7.663065226090437,284
7.667066826730693,278
7.671068427370948,264
7.675070028011205,249
7.679071628651461,286
7.6830732292917165,331
7.687074829931973,351
7.691076430572229,340
7.695078031212486,334
7.699079631852741,359
7.703081232492997,357
7.707082833133254,340
7.71108443377351,309
7.7150860344137655,276
7.719087635054022,236
7.723089235694278,182
7.7270908363345345,141
7.73109243697479,79
7.735094037615046,13
7.739095638255303,-39
7.743097238895558,-72
7.7470988395358145,-86
7.751100440176071,-82
7.755102040816327,-80
7.759103641456583,-88
7.763105242096839,-123
7.767106842737095,-165
7.771108443377352,-222
7.775110044017607,-248
7.779111644657863,-221
7.78311324529812,-105
7.787114845938375,90
7.791116446578632,347
7.795118047218888,625
7.799119647859144,868
7.8031212484994,878
7.807122849139656,878
7.811124449779912,878
7.815126050420169,-653
7.819127651060424,-934
7.8231292517006805,-1128
7.827130852340937,-1228
7.831132452981193,-1210
7.835134053621449,-1103
7.839135654261705,-941
7.843137254901961,-768
7.847138855542217,-588
7.851140456182473,-434
7.8551420568227295,-318
7.859143657462986,-229
7.863145258103241,-162
7.867146858743498,-118
7.871148459383754,-86
7.87515006002401,-59
7.879151660664266,-42
7.883153261304522,-14
7.887154861944778,35
7.891156462585034,77
7.89515806322529,114
7.899159663865547,139
7.903161264505803,155
7.907162865146058,180
7.911164465786315,219
7.915166066426571,265
7.919167667066827,297
7.923169267707083,324
7.927170868347339,346
7.9311724689875955,344
7.935174069627852,330
7.939175670268107,294
7.943177270908364,267
7.94717887154862,247
7.9511804721888755,223
7.955182072829132,196
7.959183673469388,146
7.9631852741096445,90
7.9671868747499,34
7.971188475390156,6
7.975190076030413,9
7.979191676670669,32
7.983193277310924,58
7.987194877951181,87
7.991196478591437,152
7.995198079231693,227
7.999199679871949,263
8.003201280512204,241
8.00720288115246,215
8.011204481792717,198
8.015206082432973,169
8.01920768307323,127
8.023209283713486,66
8.027210884353742,3
8.031212484993999,-66
8.035214085634253,-129
8.03921568627451,-193
8.043217286914766,-248
8.047218887555022,-293
8.051220488195279,-311
8.055222088835535,-301
8.059223689475791,-266
8.063225290116046,-263
8.067226890756302,-273
8.071228491396559,-302
8.075230092036815,-328
8.079231692677071,-301
8.083233293317328,-225
8.087234893957584,-96
8.09123649459784,105
8.095238095238095,343
8.099239695878351,650
8.103241296518608,985
8.107242897158864,1027
8.11124449779912,609
8.115246098439377,24
8.119247699079633,-404
8.123249299719888,-697
8.127250900360144,-915
8.1312525010004,-1047
8.135254101640657,-1049
8.139255702280913,-931
8.14325730292117,-745
8.147258903561426,-597
8.15126050420168,-446
8.155262104841936,-273
8.159263705482193,-143
8.16326530612245,-46
8.167266906762706,18
8.171268507402962,46
8.175270108043218,49
8.179271708683475,56
8.183273309323729,120
8.187274909963985,147
8.191276510604242,125
8.195278111244498,141
8.199279711884754,179
8.20328131252501,204
8.207282913165267,240
8.211284513805522,268
8.215286114445778,308
8.219287715086034,378
8.22328931572629,399
8.227290916366547,364
8.231292517006803,370
8.23529411764706,374
8.239295718287316,352
8.24329731892757,338
8.247298919567827,329
8.251300520208083,311
8.25530212084834,289
8.259303721488596,239
8.263305322128852,186
8.267306922769109,174
8.271308523409363,155
8.27531012404962,123
8.279311724689876,133
8.283313325330132,168
8.287314925970389,136
8.291316526610645,99
8.295318127250901,98
8.299319727891156,102
8.303321328531412,95
8.307322929171669,116
8.311324529811925,169
8.315326130452181,204
8.319327731092438,177
8.323329331732694,103
8.32733093237295,47
8.331332533013205,49
8.335334133653461,34
8.339335734293718,-45
8.343337334933974,-126
8.34733893557423,-221
8.351340536214487,-284
8.355342136854743,-299
8.359343737494997,-321
8.363345338135254,-329
8.36734693877551,-270
8.371348539415767,-222
8.375350140056023,-214
8.37935174069628,-218
8.383353341336536,-226
8.387354941976792,-220
8.391356542617046,-149
8.395358143257303,35
8.39935974389756,316
8.403361344537815,679
8.407362945178072,1051
8.411364545818328,1305
8.415366146458584,1124
8.419367747098839,589
8.423369347739095,90
8.427370948379352,-265
8.431372549019608,-526
8.435374149659864,-742
8.43937575030012,-865
8.443377350940377,-854
8.447378951580633,-735
8.451380552220888,-650
8.455382152861144,-595
8.4593837535014,-470
8.463385354141657,-309
8.467386954781913,-212
8.47138855542217,-145
8.475390156062426,-108
8.47939175670268,-95
8.483393357342937,-79
8.487394957983193,-56
8.49139655862345,-25
8.495398159263706,10
8.499399759903962,66
8.503401360544219,133
8.507402961184473,164
8.51140456182473,159
8.515406162464986,165
8.519407763105242,202
8.523409363745499,210
8.527410964385755,213
8.531412565026011,231
8.535414165666268,248
8.539415766306522,261
8.543417366946779,280
8.547418967587035,280
8.551420568227291,276
8.555422168867548,264
8.559423769507804,219
8.56342537014806,140
8.567426970788315,115
8.571428571428571,118
8.575430172068828,120
8.579431772709084,88
8.58343337334934,29
8.587434973989597,-21
8.591436574629853,-15
8.59543817527011,28
8.599439775910364,61
8.60344137655062,56
8.607442977190876,56
8.611444577831133,76
8.61544617847139,81
8.619447779111646,96
8.623449379751902,91
8.627450980392156,58
8.631452581032413,5
8.635454181672669,-33
8.639455782312925,-55
8.643457382953182,-105
8.647458983593438,-166
8.651460584233694,-206
8.65546218487395,-228
8.659463785514205,-250
8.663465386154462,-281
8.667466986794718,-303
8.671468587434974,-318
8.67547018807523,-330
8.679471788715487,-350
8.683473389355743,-381
8.687474989995998,-434
8.691476590636254,-504
8.69547819127651,-511
8.699479791916767,-381
8.703481392557023,-152
8.70748299319728,113
8.711484593837536,403
8.71548619447779,700
8.719487795118047,906
8.723489395758303,701
8.72749099639856,158
8.731492597038816,-325
8.735494197679072,-658
8.739495798319329,-880
8.743497398959585,-1060
8.74749899959984,-1144
8.751500600240096,-1101
8.755502200880352,-1001
8.759503801520609,-867
8.763505402160865,-707
8.767507002801121,-539
8.771508603441378,-366
8.775510204081632,-244
8.779511804721889,-160
8.783513405362145,-99
8.787515006002401,-68
8.791516606642658,-28
8.795518207282914,34
8.79951980792317,77
8.803521408563427,111
8.807523009203681,134
8.811524609843937,169
8.815526210484194,262
8.81952781112445,352
8.823529411764707,391
8.827531012404963,398
8.83153261304522,378
8.835534213685474,385
8.83953581432573,390
8.843537414965986,344
8.847539015606243,303
8.8515406162465,331
8.855542216886755,349
8.859543817527012,332
8.863545418167266,306
8.867547018807523,289
8.871548619447779,258
8.875550220088035,225
8.879551820728292,201
8.883553421368548,186
8.887555022008804,177
8.89155662264906,168
8.895558223289315,159
8.899559823929572,130
8.903561424569828,124
8.907563025210084,150
8.91156462585034,183
8.915566226490597,202
8.919567827130853,210
8.923569427771108,204
8.927571028411364,182
8.93157262905162,150
8.935574229691877,121
8.939575830332133,63
8.94357743097239,12
8.947579031612646,-39
8.951580632252902,-105
8.955582232893157,-173
8.959583833533413,-225
8.96358543417367,-263
8.967587034813926,-277
8.971588635454182,-299
8.975590236094439,-304
8.979591836734695,-300
8.98359343737495,-286
8.987595038015206,-265
8.991596638655462,-276
8.995598239295719,-319
8.999599839935975,-352
9.003601440576231,-293
9.007603041216488,-159
9.011604641856744,54
9.015606242496998,323
9.019607843137255,629
9.023609443777511,904
9.027611044417768,902
9.031612645058024,475
9.03561424569828,-65
9.039615846338537,-442
9.043617446978791,-681
9.047619047619047,-859
9.051620648259304,-984
9.05562224889956,-1019
9.059623849539816,-955
9.063625450180073,-811
9.06762705082033,-618
9.071628651460584,-401
9.07563025210084,-224
9.079631852741096,-103
9.083633453381353,-12
9.087635054021609,73
9.091636654661865,142
9.095638255302122,175
9.099639855942378,184
9.103641456582633,228
9.107643057222889,282
9.111644657863145,326
9.115646258503402,357
9.119647859143658,376
9.123649459783914,358
9.12765106042417,332
9.131652661064425,322
9.135654261704682,320
9.139655862344938,357
9.143657462985194,418
9.14765906362545,416
9.151660664265707,365
9.155662264905963,333
9.15966386554622,304
9.163665466186474,262
9.16766706682673,230
9.171668667466987,192
9.175670268107243,136
9.1796718687475,78
9.183673469387756,52
9.187675070028012,21
9.191676670668267,-15
9.195678271308523,-33
9.19967987194878,0
9.203681472589036,48
9.207683073229292,79
9.211684673869549,111
9.215686274509805,140
9.219687875150061,165
9.223689475790316,197
9.227691076430572,208
9.231692677070829,212
9.235694277711085,208
9.239695878351341,196
9.243697478991598,160
9.247699079631854,124
9.251700680272108,101
9.255702280912365,65
9.259703881552621,34
9.263705482192877,-19
9.267707082833134,-92
9.27170868347339,-170
9.275710284113647,-242
9.279711884753901,-265
9.283713485394157,-285
9.287715086034414,-315
9.29171668667467,-366
9.295718287314926,-412
9.299719887955183,-463
9.30372148859544,-523
9.307723089235695,-526
9.31172468987595,-449
9.315726290516206,-274
9.319727891156463,-123
9.323729491796719,150
9.327731092436975,424
9.331732693077232,702
9.335734293717488,769
9.339735894357743,447
9.343737494997999,-13
9.347739095638255,-378
9.351740696278512,-621
9.355742296918768,-793
9.359743897559024,-914
9.36374549819928,-977
9.367747098839537,-970
9.371748699479792,-876
9.375750300120048,-783
9.379751900760304,-462
9.38375350140056,-331
9.387755102040817,-238
9.391756702681073,-165
9.39575830332133,-97
9.399759903961584,-33
9.40376150460184,21
9.407763105242097,55
9.411764705882353,79
9.41576630652261,97
9.419767907162866,119
9.423769507803122,134
9.427771108443377,161
9.431772709083633,180
9.43577430972389,195
9.439775910364146,217
9.443777511004402,241
9.447779111644659,261
9.451780712284915,280
9.455782312925171,297
9.459783913565426,314
9.463785514205682,348
9.467787114845938,366
9.471788715486195,337
9.475790316126451,302
9.479791916766708,279
9.483793517406964,252
9.487795118047218,216
9.491796718687475,199
9.495798319327731,179
9.499799919967987,150
9.503801520608244,120
9.5078031212485,112
9.511804721888756,108
9.515806322529013,103
9.519807923169267,100
9.523809523809524,103
9.52781112444978,124
9.531812725090036,153
9.535814325730293,158
9.539815926370549,119
9.543817527010805,91
9.54781912765106,49
9.551820728291316,0
9.555822328931573,-42
9.559823929571829,-99
9.563825530212085,-175
9.567827130852342,-199
9.571828731492598,-202
9.575830332132854,-240
9.579831932773109,-277
9.583833533413365,-322
9.587835134053622,-358
9.591836734693878,-325
9.595838335334134,-267
9.59983993597439,-249
9.603841536614647,-339
9.607843137254902,-471
9.611844737895158,-496
9.615846338535414,-328
9.61984793917567,-77
9.623849539815927,195
9.627851140456183,472
9.63185274109644,766
9.635854341736694,1000
9.63985594237695,888
9.643857543017207,451
9.647859143657463,-38
9.65186074429772,-434
9.655862344937976,-720
9.659863945578232,-857
9.663865546218489,-898
9.667867146858743,-870
9.671868747499,-789
9.675870348139256,-664
9.679871948779512,-460
9.683873549419769,-270
9.687875150060025,-160
9.691876750700281,-107
9.695878351340536,-55
9.699879951980792,-6
9.703881552621048,58
9.707883153261305,119
9.711884753901561,172
9.715886354541817,206
9.719887955182074,199
9.72388955582233,206
9.727891156462585,262
9.731892757102841,326
9.735894357743097,358
9.739895958383354,383
9.74389755902361,393
9.747899159663866,428
9.751900760304123,455
9.755902360944377,470
9.759903961584634,488
9.76390556222489,502
9.767907162865146,516
9.771908763505403,531
9.775910364145659,518
9.779911964785915,500
9.78391356542617,464
9.787915166066426,406
9.791916766706683,353
9.795918367346939,319
9.799919967987195,301
9.803921568627452,286
9.807923169267708,260
9.811924769907964,226
9.815926370548219,189
9.819927971188475,176
9.823929571828732,198
9.827931172468988,241
9.831932773109244,278
9.8359343737495,274
9.839935974389757,245
9.843937575030012,204
9.847939175670268,153
9.851940776310524,97
9.85594237695078,45
9.859943977591037,25
9.863945578231293,16
9.86794717887155,-12
9.871948779511806,-75
9.87595038015206,-158
9.879951980792317,-213
9.883953581432573,-244
9.88795518207283,-272
9.891956782713086,-284
9.895958383353342,-273
9.899959983993599,-254
9.903961584633853,-248
9.90796318527411,-257
9.911964785914366,-284
9.915966386554622,-304
9.919967987194878,-271
9.923969587835135,-152
9.927971188475391,50
9.931972789115648,333
9.935974389755902,656
9.939975990396158,978
9.943977591036415,1089
9.947979191676671,729
9.951980792316927,129
9.955982392957184,-377
9.95998399359744,-694
9.963985594237695,-901
9.967987194877951,-1028
9.971988795518207,-1066
9.975990396158464,-1023
9.97999199679872,-912
9.983993597438976,-778
9.987995198079233,-611
9.991996798719487,-446
9.995998399359744,-292
10.0,-170
10.004001600640256,-85
10.008003201280513,-40
10.012004801920769,2
10.016006402561025,39
10.020008003201282,89
10.024009603841536,192
10.028011204481793,303
10.032012805122049,355
10.036014405762305,362
10.040016006402562,321
10.044017607042818,299
10.048019207683074,369
10.052020808323329,434
10.056022408963585,463
10.060024009603842,473
10.064025610244098,473
10.068027210884354,467
10.07202881152461,468
10.076030412164867,454
10.080032012805123,435
10.084033613445378,418
10.088035214085634,393
10.09203681472589,340
10.096038415366147,279
10.100040016006403,254
10.10404161664666,257
10.108043217286916,242
10.11204481792717,218
10.116046418567427,179
10.120048019207683,148
10.12404961984794,133
10.128051220488196,132
10.132052821128452,134
10.136054421768709,153
10.140056022408965,204
10.14405762304922,234
10.148059223689476,228
10.152060824329732,182
10.156062424969988,131
10.160064025610245,120
10.164065626250501,116
10.168067226890757,100
10.172068827531012,96
10.176070428171268,59
10.180072028811525,-54
10.184073629451781,-144
10.188075230092037,-158
10.192076830732294,-165
10.19607843137255,-190
10.200080032012805,-181
10.204081632653061,-167
10.208083233293317,-172
10.212084833933574,-194
10.21608643457383,-197
10.220088035214086,-204
10.224089635854343,-188
10.228091236494599,-114
10.232092837134854,37
10.23609443777511,271
10.240096038415366,580
10.244097639055623,899
10.248099239695879,1067
10.252100840336135,807
10.256102440976392,270
10.260104041616646,-208
10.264105642256903,-531
10.268107242897159,-773
10.272108843537415,-920
10.276110444177672,-983
10.280112044817928,-996
10.284113645458184,-968
10.28811524609844,-866
10.292116846738695,-684
10.296118447378952,-533
10.300120048019208,-381
10.304121648659464,-230
10.30812324929972,-173
10.312124849939977,-200
10.316126450580233,-158
10.320128051220488,-55
10.324129651860744,-30
10.328131252501,-86
10.332132853141257,-54
10.336134453781513,4
10.34013605442177,26
10.344137655062026,73
10.34813925570228,121
10.352140856342537,87
10.356142456982793,121
10.36014405762305,197
10.364145658263306,198
10.368147258903562,186
10.372148859543818,207
10.376150460184075,196
10.38015206082433,160
10.384153661464586,159
10.388155262104842,163
10.392156862745098,161
10.396158463385355,142
10.400160064025611,126
10.404161664665867,94
10.408163265306122,66
10.412164865946378,69
10.416166466586635,64
10.420168067226891,24
10.424169667867147,17
10.428171268507404,51
10.43217286914766,70
10.436174469787916,94
10.440176070428171,123
10.444177671068427,163
10.448179271708684,191
10.45218087234894,213
10.456182472989196,210
10.460184073629453,184
10.464185674269709,132
10.468187274909964,58
10.47218887555022,4
10.476190476190476,-23
10.480192076830733,-55
10.484193677470989,-65
10.488195278111245,-107
10.492196878751502,-202
10.496198479391758,-290
10.500200080032013,-338
10.504201680672269,-327
10.508203281312525,-267
10.512204881952782,-213
10.516206482593038,-195
10.520208083233294,-199
10.52420968387355,-248
10.528211284513805,-291
10.532212885154062,-243
10.536214485794318,-108
10.540216086434574,82
10.54421768707483,329
10.548219287715087,637
10.552220888355343,943
10.556222488995598,1057
10.560224089635854,734
10.56422569027611,209
10.568227290916367,-249
10.572228891556623,-567
10.57623049219688,-808
10.580232092837136,-966
10.584233693477392,-1046
10.588235294117647,-1053
10.592236894757903,-1007
10.59623849539816,-926
10.600240096038416,-798
10.604241696678672,-654
10.608243297318928,-499
10.612244897959185,-364
10.61624649859944,-282
10.620248099239696,-197
10.624249699879952,-118
10.628251300520208,-90
10.632252901160465,-56
10.636254501800721,-15
10.640256102440977,20
10.644257703081234,11
10.648259303721488,-28
10.652260904361745,-24
10.656262505002001,-15
10.660264105642257,14
10.664265706282514,84
10.66826730692277,157
10.672268907563026,223
10.676270508203281,256
10.680272108843537,278
10.684273709483794,285
10.68827531012405,261
10.692276910764306,228
10.696278511404563,224
10.700280112044819,227
10.704281712685075,210
10.70828331332533,153
10.712284913965586,92
10.716286514605843,76
10.720288115246099,97
10.724289715886355,112
10.728291316526612,105
10.732292917166868,77
10.736294517807123,50
10.740296118447379,23
10.744297719087635,5
10.748299319727892,42
10.752300920368148,113
10.756302521008404,126
10.76030412164866,80
10.764305722288915,64
10.768307322929171,69
10.772308923569428,13
10.776310524209684,-68
10.78031212484994,-97
10.784313725490197,-103
10.788315326130453,-121
10.79231692677071,-166
10.796318527410964,-232
10.80032012805122,-268
10.804321728691477,-327
10.808323329331733,-365
10.81232492997199,-322
10.816326530612246,-271
10.820328131252502,-250
10.824329731892757,-269
10.828331332533013,-289
10.83233293317327,-252
10.836334533813526,-189
10.840336134453782,-78
10.844337735094038,76
10.848339335734295,268
10.852340936374551,505
10.856342537014806,836
10.860344137655062,1062
10.864345738295318,872
10.868347338935575,390
10.872348939575831,-81
10.876350540216087,-409
10.880352140856344,-597
10.884353741496598,-711
10.888355342136855,-726
10.892356942777111,-661
10.896358543417367,-552
10.900360144057624,-423
10.90436174469788,-281
10.908363345338136,-163
10.912364945978391,-56
10.916366546618647,16
10.920368147258904,39
10.92436974789916,48
10.928371348539416,38
10.932372949179673,58
10.936374549819929,103
10.940376150460185,148
10.94437775110044,192
10.948379351740696,219
10.952380952380953,235
10.956382553021209,232
10.960384153661465,237
10.964385754301722,263
10.968387354941978,305
10.972388955582232,331
10.976390556222489,330
10.980392156862745,351
10.984393757503002,376
10.988395358143258,353
10.992396958783514,325
10.99639855942377,303
11.000400160064027,253
11.004401760704281,168
11.008403361344538,106
11.012404961984794,72
11.01640656262505,38
11.020408163265307,-5
11.024409763905563,-48
11.02841136454582,-75
11.032412965186074,-85
11.03641456582633,-73
11.040416166466587,-38
11.044417767106843,9
11.0484193677471,37
11.052420968387356,54
11.056422569027612,71
11.060424169667868,100
11.064425770308123,107
11.06842737094838,90
11.072428971588636,52
11.076430572228892,10
11.080432172869148,-16
11.084433773509405,-31
11.088435374149661,-52
11.092436974789916,-91
11.096438575430172,-144
11.100440176070428,-191
11.104441776710685,-214
11.108443377350941,-221
11.112444977991197,-219
11.116446578631454,-219
11.120448179271708,-223
11.124449779911965,-237
11.128451380552221,-243
11.132452981192477,-258
11.136454581832734,-314
11.14045618247299,-332
11.144457783113246,-249
11.148459383753503,-82
11.152460984393757,128
11.156462585034014,414
11.16046418567427,754
11.164465786314526,1049
11.168467386954783,1015
11.172468987595039,551
11.176470588235295,-15
11.18047218887555,-422
11.184473789515806,-703
11.188475390156063,-864
11.192476990796319,-922
11.196478591436575,-897
11.200480192076832,-837
11.204481792717088,-701
11.208483393357344,-528
11.212484993997599,-362
11.216486594637855,-254
11.220488195278111,-122
11.224489795918368,7
11.228491396558624,111
11.23249299719888,184
11.236494597839137,217
11.240496198479391,220
11.244497799119648,217
11.248499399759904,279
11.25250100040016,332
11.256502601040417,356
11.260504201680673,392
11.26450580232093,433
11.268507402961184,472
11.27250900360144,490
11.276510604241697,455
11.280512204881953,387
11.28451380552221,413
11.288515406162466,458
11.292517006802722,499
11.296518607442978,548
11.300520208083233,559
11.30452180872349,485
11.308523409363746,390
11.312525010004002,314
11.316526610644258,243
11.320528211284515,208
11.324529811924771,262
11.328531412565026,291
11.332533013205282,228
11.336534613845538,149
11.340536214485795,58
11.344537815126051,38
11.348539415766307,-35
11.352541016406564,-21
11.35654261704682,67
11.360544217687075,109
11.364545818327331,127
11.368547418967587,70
11.372549019607844,18
11.3765506202481,-16
11.380552220888356,-3
11.384553821528613,-18
11.388555422168867,-40
11.392557022809124,-88
11.39655862344938,-156
11.400560224089636,-189
11.404561824729893,-278
11.408563425370149,-320
11.412565026010405,-319
11.416566626650662,-340
11.420568227290916,-368
11.424569827931172,-362
11.428571428571429,-306
11.432573029211685,-201
11.436574629851942,-251
11.440576230492198,-317
11.444577831132454,-328
11.448579431772709,-314
11.452581032412965,-181
11.456582633053221,31
11.460584233693478,367
11.464585834333734,777
11.46858743497399,1131
11.472589035614247,1064
11.476590636254501,441
11.480592236894758,-134
11.484593837535014,-477
11.48859543817527,-680
11.492597038815527,-888
11.496598639455783,-1052
11.50060024009604,-1089
11.504601840736296,-1068
11.50860344137655,-961
11.512605042016807,-821
11.516606642657063,-671
11.52060824329732,-488
11.524609843937576,-373
11.528611444577832,-305
11.532613045218088,-186
11.536614645858343,-103
11.5406162464986,-91
11.544617847138856,-86
11.548619447779112,-44
11.552621048419368,-17
11.556622649059625,12
11.560624249699881,94
11.564625850340137,141
11.568627450980392,114
11.572629051620648,57
11.576630652260905,58
11.580632252901161,118
11.584633853541417,165
11.588635454181674,208
11.59263705482193,250
11.596638655462185,273
11.60064025610244,304
11.604641856742697,320
11.608643457382954,277
11.61264505802321,225
11.616646658663466,179
11.620648259303723,165
11.624649859943979,168
11.628651460584233,143
11.63265306122449,94
11.636654661864746,47
11.640656262505003,84
11.644657863145259,124
11.648659463785515,130
11.652661064425772,94
11.656662665066026,86
11.660664265706282,185
11.664665866346539,324
11.668667466986795,418
11.672669067627051,460
11.676670668267308,488
11.680672268907564,467
11.684673869547819,450
11.688675470188075,439
11.692677070828331,399
11.696678671468588,350
11.700680272108844,283
11.7046818727491,193
11.708683473389357,93
11.712685074029613,5
11.716686674669868,-65
11.720688275310124,-99
11.72468987595038,-107
11.728691476590637,-144
11.732693077230893,-183
11.73669467787115,-195
11.740696278511406,-200
11.74469787915166,-228
11.748699479791917,-265
11.752701080432173,-275
11.75670268107243,-232
11.760704281712686,-108
11.764705882352942,134
11.768707482993198,451
11.772709083633455,804
11.77671068427371,1066
11.780712284913966,882
11.784713885554222,334
11.788715486194478,-188
11.792717086834735,-553
11.796718687474991,-827
11.800720288115247,-1048
11.804721888755502,-1165
11.808723489395758,-1179
11.812725090036015,-1115
11.816726690676271,-1006
11.820728291316527,-856
11.824729891956784,-683
11.82873149259704,-546
11.832733093237294,-441
11.83673469387755,-367
11.840736294517807,-310
11.844737895158064,-283
11.84873949579832,-259
11.852741096438576,-218
11.856742697078833,-173
11.860744297719089,-158
11.864745898359343,-146
11.8687474989996,-123
11.872749099639856,-88
11.876750700280112,-42
11.880752300920369,-8
11.884753901560625,17
11.888755502200882,60
11.892757102841136,111
11.896758703481392,141
11.900760304121649,161
11.904761904761905,173
11.908763505402161,187
11.912765106042418,195
11.916766706682674,208
11.92076830732293,193
11.924769907963185,167
11.928771508603441,147
11.932773109243698,118
11.936774709883954,74
11.94077631052421,42
11.944777911164467,13
11.948779511804723,10
11.952781112444978,10
11.956782713085234,20
11.96078431372549,39
11.964785914365747,65
11.968787515006003,92
11.97278911564626,95
11.976790716286516,80
11.980792316926772,70
11.984793917567027,80
11.988795518207283,66
11.99279711884754,17
11.996798719487796,-56
12.000800320128052,-108
12.004801920768308,-147
12.008803521408565,-179
12.01280512204882,-202
12.016806722689076,-223
12.020808323329332,-224
12.024809923969588,-196
12.028811524609845,-145
12.032813125250101,-107
12.036814725890357,-121
12.040816326530612,-162
12.044817927170868,-199
12.048819527811125,-249
12.05282112845138,-300
12.056822729091637,-264
12.060824329731894,-125
12.06482593037215,92
12.068827531012406,348
12.07282913165266,611
12.076830732292917,901
12.080832332933173,1057
12.08483393357343,799
12.088835534213686,288
12.092837134853943,-182
12.096838735494199,-533
12.100840336134453,-758
12.10484193677471,-865
12.108843537414966,-865
12.112845138055222,-773
12.116846738695479,-641
12.120848339335735,-497
12.124849939975991,-361
12.128851540616248,-222
12.132853141256502,-102
12.136854741896759,-10
12.140856342537015,36
12.144857943177271,79
12.148859543817528,131
12.152861144457784,168
12.15686274509804,183
12.160864345738295,198
12.164865946378551,235
12.168867547018808,273
12.172869147659064,309
12.17687074829932,336
12.180872348939577,351
12.184873949579833,370
12.18887555022009,390
12.192877150860344,414
12.1968787515006,431
12.200880352140857,456
12.204881952781113,475
12.20888355342137,487
12.212885154061626,483
12.216886754701882,446
12.220888355342137,444
12.224889955982393,434
12.22889155662265,345
12.232893157262906,315
12.236894757903162,275
12.240896358543418,254
12.244897959183675,240
12.24889955982393,232
12.252901160464186,220
12.256902761104442,201
12.260904361744698,193
12.264905962384955,212
12.268907563025211,238
12.272909163665467,242
12.276910764305724,229
12.280912364945978,220
12.284913965586234,199
12.28891556622649,193
12.292917166866747,177
12.296918767507004,128
12.30092036814726,58
12.304921968787516,-10
12.30892356942777,-63
12.312925170068027,-89
12.316926770708283,-132
12.32092837134854,-205
12.324929971988796,-257
12.328931572629052,-251
12.332933173269309,-223
12.336934773909565,-199
12.34093637454982,-234
12.344937975190076,-279
12.348939575830332,-325
12.352941176470589,-354
12.356942777110845,-323
12.360944377751101,-258
12.364945978391358,-157
12.368947579031612,48
12.372949179671869,387
12.376950780312125,731
12.380952380952381,1006
12.384953981592638,1062
12.388955582232894,713
12.39295718287315,171
12.396958783513405,-276
12.400960384153661,-569
12.404961984793918,-808
12.408963585434174,-1005
12.41296518607443,-1080
12.416966786714687,-1051
12.420968387354943,-895
12.4249699879952,-746
12.428971588635454,-643
12.43297318927571,-564
12.436974789915967,-413
12.440976390556223,-258
12.44497799119648,-131
12.448979591836736,0
12.452981192476992,75
12.456982793117247,76
12.460984393757503,83
12.46498599439776,49
12.468987595038016,58
12.472989195678272,78
12.476990796318528,99
12.480992396958785,138
12.484993997599041,196
12.488995598239296,238
12.492997198879552,297
12.496998799519808,331
12.501000400160065,360
12.50500200080032,364
12.509003601440577,342
12.513005202080834,313
12.517006802721088,333
12.521008403361344,401
12.5250100040016,430
12.529011604641857,363
12.533013205282113,303
12.53701480592237,297
12.541016406562626,269
12.545018007202883,254
12.549019607843137,199
12.553021208483393,135
12.55702280912365,115
12.561024409763906,128
12.565026010404162,137
12.569027611044419,135
12.573029211684675,149
12.57703081232493,120
12.581032412965186,134
12.585034013605442,227
12.589035614245699,255
12.593037214885955,175
12.597038815526211,90
12.601040416166468,43
12.605042016806722,-15
12.609043617446979,-107
12.613045218087235,-184
12.617046818727491,-181
12.621048419367748,-131
12.625050020008004,-145
12.62905162064826,-236
12.633053221288517,-310
12.637054821928771,-367
12.641056422569028,-367
12.645058023209284,-320
12.64905962384954,-312
12.653061224489797,-317
12.657062825130053,-334
12.66106442577031,-358
12.665066026410564,-318
12.66906762705082,-188
12.673069227691077,22
12.677070828331333,299
12.68107242897159,639
12.685074029611846,963
12.689075630252102,1125
12.693077230892358,837
12.697078831532613,267
12.70108043217287,-235
12.705082032813126,-566
12.709083633453382,-776
12.713085234093638,-920
12.717086834733895,-1008
12.721088435374151,-1018
12.725090036014405,-949
12.729091636654662,-823
12.733093237294918,-675
12.737094837935174,-526
12.74109643857543,-378
12.745098039215687,-243
12.749099639855944,-152
12.7531012404962,-89
12.757102841136454,-54
12.76110444177671,-46
12.765106042416967,-37
12.769107643057223,-33
12.77310924369748,-23
12.777110844337736,-7
12.781112444977992,33
12.785114045618247,87
12.789115646258503,139
12.79311724689876,175
12.797118847539016,197
12.801120448179272,210
12.805122048819529,209
12.809123649459785,200
12.81312525010004,194
12.817126850740296,205
12.821128451380552,225
12.825130052020809,211
12.829131652661065,196
12.833133253301321,175
12.837134853941578,124
12.841136454581834,70
12.845138055222089,18
12.849139655862345,-26
12.853141256502601,-14
12.857142857142858,24
12.861144457783114,35
12.86514605842337,21
12.869147659063627,13
12.873149259703881,8
12.877150860344138,3
12.881152460984394,38
12.88515406162465,73
12.889155662264907,41
12.893157262905163,-18
12.89715886354542,-69
12.901160464185676,-116
12.90516206482593,-100
12.909163665466187,-89
12.913165266106443,-109
12.9171668667467,-152
12.921168467386956,-218
12.925170068027212,-284
12.929171668667468,-321
12.933173269307723,-333
12.93717486994798,-345
12.941176470588236,-353
12.945178071228492,-348
12.949179671868748,-326
12.953181272509005,-309
12.95718287314926,-312
12.961184473789515,-342
12.965186074429772,-384
12.969187675070028,-397
12.973189275710284,-323
12.97719087635054,-153
12.981192476990797,105
12.985194077631053,417
12.98919567827131,733
12.993197278911564,960
12.99719887955182,823
13.001200480192077,315
13.005202080832333,-183
13.00920368147259,-534
13.013205282112846,-770
13.017206882753102,-939
13.021208483393357,-1049
13.025210084033613,-1084
13.02921168467387,-999
13.033213285314126,-836
13.037214885954382,-640
13.041216486594639,-450
13.045218087234895,-286
13.049219687875151,-155
13.053221288515406,-57
13.057222889155662,23
13.061224489795919,94
13.065226090436175,146
13.069227691076431,175
13.073229291716688,181
13.077230892356944,199
13.081232492997199,234
13.085234093637455,267
13.089235694277711,314
13.093237294917968,324
13.097238895558224,318
13.10124049619848,321
13.105242096838737,347
13.109243697478993,413
13.113245298119248,489
13.117246898759504,517
13.12124849939976,491
13.125250100040017,488
13.129251700680273,485
13.13325330132053,442
13.137254901960786,387
13.14125650260104,340
13.145258103241297,311
13.149259703881553,296
13.15326130452181,287
13.157262905162066,260
13.161264505802322,238
13.165266106442578,232
13.169267707082833,237
13.17326930772309,232
13.177270908363345,215
13.181272509003602,194
13.185274109643858,161
13.189275710284114,159
13.19327731092437,180
13.197278911564627,181
13.201280512204882,150
13.205282112845138,144
13.209283713485394,133
13.21328531412565,84
13.217286914765907,27
13.221288515406163,-26
13.22529011604642,-91
13.229291716686674,-145
13.23329331732693,-197
13.237294917967187,-224
13.241296518607443,-248
13.2452981192477,-256
13.249299719887956,-251
13.253301320528212,-258
13.257302921168469,-273
13.261304521808723,-251
13.26530612244898,-215
13.269307723089236,-207
13.273309323729492,-212
13.277310924369749,-204
13.281312525010005,-124
13.285314125650261,54
13.289315726290516,304
13.293317326930772,582
13.297318927571029,860
13.301320528211285,890
13.305322128851541,514
13.309323729491798,-9
13.313325330132054,-442
13.31732693077231,-764
13.321328531412565,-985
13.325330132052821,-1080
13.329331732693078,-1065
13.333333333333334,-996
13.33733493397359,-882
13.341336534613847,-719
13.345338135254103,-535
13.349339735894358,-356
13.353341336534614,-224
13.35734293717487,-140
13.361344537815127,-72
13.365346138455383,-7
13.36934773909564,60
13.373349339735896,90
13.37735094037615,64
13.381352541016406,69
13.385354141656663,100
13.38935574229692,127
13.393357342937176,162
13.397358943577432,182
13.401360544217688,204
13.405362144857945,204
13.409363745498199,220
13.413365346138455,281
13.417366946778712,357
13.421368547418968,402
13.425370148059224,434
13.42937174869948,444
13.433373349339737,401
13.437374949979992,369
13.441376550620248,363
13.445378151260504,352
13.44937975190076,293
13.453381352541017,196
13.457382953181273,112
13.46138455382153,90
13.465386154461786,88
13.46938775510204,100
13.473389355742297,109
13.477390956382553,106
13.48139255702281,90
13.485394157663066,76
13.489395758303322,71
13.493397358943579,47
13.497398959583833,40
13.50140056022409,25
13.505402160864346,4
13.509403761504602,-23
13.513405362144859,-27
13.517406962785115,-43
13.521408563425371,-81
13.525410164065626,-119
13.529411764705882,-163
13.533413365346139,-196
13.537414965986395,-249
13.541416566626651,-282
13.545418167266908,-313
13.549419767907164,-340
13.55342136854742,-345
13.557422969187675,-315
13.561424569827931,-284
13.565426170468188,-302
13.569427771108444,-348
13.5734293717487,-350
13.577430972388957,-329
13.581432573029213,-281
13.585434173669467,-187
13.589435774309724,20
13.59343737494998,330
13.597438975590237,640
13.601440576230493,912
13.60544217687075,965
13.609443777511006,582
13.613445378151262,38
13.617446978791516,-337
13.621448579431773,-542
13.62545018007203,-708
13.629451780712285,-866
13.633453381352542,-902
13.637454981992798,-849
13.641456582633054,-743
13.645458183273309,-602
13.649459783913565,-431
13.653461384553822,-289
13.657462985194078,-196
13.661464585834334,-114
13.66546618647459,4
13.669467787114847,132
13.673469387755103,261
13.677470988395358,286
13.681472589035614,279
13.68547418967587,286
13.689475790316127,252
13.693477390956383,239
13.69747899159664,258
13.701480592236896,294
13.70548219287715,355
13.709483793517407,394
13.713485394157663,455
13.71748699479792,442
13.721488595438176,427
13.725490196078432,425
13.729491796718689,467
13.733493397358943,476
13.7374949979992,495
13.741496598639456,501
13.745498199279712,407
13.749499799919969,340
13.753501400560225,296
13.757503001200481,297
13.761504601840738,280
13.765506202480992,275
13.769507803121249,296
13.773509403761505,246
13.777511004401761,208
13.781512605042018,119
13.785514205682274,126
13.78951580632253,173
13.793517406962785,204
13.797519007603041,241
13.801520608243298,290
13.805522208883554,272
13.80952380952381,188
13.813525410164067,73
13.817527010804323,23
13.82152861144458,31
13.825530212084834,109
13.82953181272509,106
13.833533413365346,25
13.837535014005603,-34
13.84153661464586,-100
13.845538215286116,-167
13.849539815926372,-185
13.853541416566626,-145
13.857543017206883,-169
13.861544617847139,-280
13.865546218487395,-369
13.869547819127652,-337
13.873549419767908,-314
13.877551020408164,-313
13.881552621048419,-283
13.885554221688675,-278
13.889555822328932,-291
13.893557422969188,-237
13.897559023609444,-45
13.9015606242497,246
13.905562224889957,629
13.909563825530213,1050
13.913565426170468,1323
13.917567026810724,1116
13.92156862745098,500
13.925570228091237,-80
13.929571828731493,-452
13.93357342937175,-705
13.937575030012006,-888
13.94157663065226,-1026
13.945578231292517,-1095
13.949579831932773,-1068
13.95358143257303,-981
13.957583033213286,-840
13.961584633853542,-684
13.965586234493799,-538
13.969587835134055,-409
13.97358943577431,-282
13.977591036414566,-169
13.981592637054822,-79
13.985594237695079,-12
13.989595838335335,31
13.993597438975591,61
13.997599039615848,70
14.001600640256102,76
14.005602240896359,116
14.009603841536615,170
14.013605442176871,200
14.017607042817128,240
14.021608643457384,287
14.02561024409764,319
14.029611844737897,311
14.033613445378151,288
14.037615046018407,289
14.041616646658664,281
14.04561824729892,298
14.049619847939177,308
14.053621448579433,315
14.05762304921969,314
14.061624649859944,291
14.0656262505002,278
14.069627851140456,288
14.073629451780713,326
14.07763105242097,352
14.081632653061225,312
14.085634253701482,269
14.089635854341736,260
14.093637454981993,264
14.097639055622249,283
14.101640656262505,259
14.105642256902762,213
14.109643857543018,238
14.113645458183274,269
14.11764705882353,248
14.121648659463785,208
14.125650260104042,150
14.129651860744298,91
14.133653461384554,60
14.13765506202481,9
14.141656662665067,-67
14.145658263305323,-102
14.149659863945578,-104
14.153661464585834,-134
14.15766306522609,-217
14.161664665866347,-282
14.165666266506603,-309
14.16966786714686,-329
14.173669467787116,-355
14.177671068427372,-380
14.181672669067627,-389
14.185674269707883,-393
14.18967587034814,-376
14.193677470988396,-339
14.197679071628652,-293
14.201680672268909,-212
14.205682272909165,-46
14.20968387354942,243
14.213685474189676,598
14.217687074829932,946
14.221688675470189,1041
14.225690276110445,658
14.229691876750701,119
14.233693477390958,-331
14.237695078031214,-667
14.241696678671468,-906
14.245698279311725,-1034
14.249699879951981,-1075
14.253701480592238,-1029
14.257703081232494,-908
14.26170468187275,-775
14.265706282513007,-622
14.269707883153261,-455
14.273709483793517,-327
14.277711084433774,-229
14.28171268507403,-137
14.285714285714286,-71
14.289715886354543,-27
14.2937174869948,-18
14.297719087635054,-7
14.30172068827531,-2
14.305722288915566,8
14.309723889555823,23
14.313725490196079,30
14.317727090836335,40
14.321728691476592,68
14.325730292116848,122
14.329731892757103,192
14.333733493397359,239
14.337735094037615,266
14.341736694677872,285
14.345738295318128,312
14.349739895958384,330
14.35374149659864,332
14.357743097238895,327
14.361744697879152,315
14.365746298519408,267
14.369747899159664,215
14.37374949979992,179
14.377751100440177,166
14.381752701080433,164
14.38575430172069,166
14.389755902360944,149
14.3937575030012,123
14.397759103641457,117
14.401760704281713,119
14.40576230492197,134
14.409763905562226,173
14.413765506202482,204
14.417767106842737,186
14.421768707482993,150
14.42577030812325,120
14.429771908763506,83
14.433773509403762,18
14.437775110044019,-19
14.441776710684275,-43
14.44577831132453,-79
14.449779911964786,-158
14.453781512605042,-226
14.457783113245299,-267
14.461784713885555,-283
14.465786314525811,-263
14.469787915166068,-236
14.473789515806324,-253
14.477791116446578,-261
14.481792717086835,-265
14.485794317727091,-275
14.489795918367347,-291
14.493797519007604,-289
14.49779911964786,-266
14.501800720288117,-212
14.505802320928371,-91
14.509803921568627,125
14.513805522208884,408
14.51780712284914,707
14.521808723489396,953
14.525810324129653,864
14.52981192476991,394
14.533813525410165,-128
14.53781512605042,-532
14.541816726690676,-804
14.545818327330933,-988
14.549819927971189,-1075
14.553821528611445,-1052
14.557823129251702,-941
14.561824729891958,-785
14.565826330532213,-593
14.569827931172469,-411
14.573829531812725,-261
14.577831132452982,-154
14.581832733093238,-78
14.585834333733494,-2
14.58983593437375,66
14.593837535014007,106
14.597839135654262,136
14.601840736294518,161
14.605842336934774,200
14.60984393757503,224
14.613845538215287,254
14.617847138855543,290
14.6218487394958,310
14.625850340136054,342
14.62985194077631,378
14.633853541416567,426
14.637855142056823,478
14.64185674269708,512
14.645858343337336,551
14.649859943977592,568
14.653861544617847,563
14.657863145258103,527
14.66186474589836,475
14.665866346538616,449
14.669867947178872,470
14.673869547819129,461
14.677871148459385,434
14.681872749099641,403
14.685874349739896,330
14.689875950380152,252
14.693877551020408,190
14.697879151660665,142
14.701880752300921,176
14.705882352941178,263
14.709883953581434,310
14.713885554221688,318
14.717887154861945,324
14.721888755502201,351
14.725890356142457,347
14.729891956782714,310
14.73389355742297,254
14.737895158063226,201
14.741896758703483,185
14.745898359343737,152
14.749899959983994,88
14.75390156062425,1
14.757903161264506,-55
14.761904761904763,-92
14.765906362545019,-136
14.769907963185275,-175
14.77390956382553,-221
14.777911164465786,-246
14.781912765106043,-232
14.785914365746299,-221
14.789915966386555,-217
14.793917567026812,-248
14.797919167667068,-313
14.801920768307324,-335
14.805922368947579,-282
14.809923969587835,-170
14.813925570228092,-2
14.817927170868348,237
14.821928771508604,485
14.82593037214886,730
14.829931972789117,782
14.833933573429372,419
14.837935174069628,-71
14.841936774709884,-432
14.84593837535014,-649
14.849939975990397,-804
14.853941576630653,-934
14.85794317727091,-1059
14.861944777911164,-1158
14.86594637855142,-1093
14.869947979191677,-865
14.873949579831933,-660
14.87795118047219,-509
14.881952781112446,-391
14.885954381752702,-275
14.889955982392959,-180
14.893957583033213,-110
14.89795918367347,-58
14.901960784313726,-12
14.905962384953982,25
14.909963985594239,27
14.913965586234495,16
14.917967186874751,13
14.921968787515006,66
14.925970388155262,121
14.929971988795518,154
14.933973589435775,190
14.937975190076031,224
14.941976790716287,257
14.945978391356544,295
14.9499799919968,327
14.953981592637055,341
14.957983193277311,343
14.961984793917567,281
14.965986394557824,215
14.96998799519808,222
14.973989595838336,238
14.977991196478593,240
14.981992797118847,225
14.985994397759104,193
14.98999599839936,154
14.993997599039616,139
14.997999199679873,139
15.002000800320129,142
15.006002400960385,134
15.01000400160064,130
15.014005602240896,130
15.018007202881153,136
15.022008803521409,145
15.026010404161665,149
15.030012004801922,163
15.034013605442178,176
15.038015206082434,161
15.042016806722689,129
15.046018407362945,103
15.050020008003202,81
15.054021608643458,29
15.058023209283714,-63
15.06202480992397,-180
15.066026410564227,-265
15.070028011204482,-319
15.074029611844738,-318
15.078031212484994,-295
15.08203281312525,-300
15.086034413765507,-338
15.090036014405763,-355
15.09403761504602,-326
15.098039215686276,-317
15.10204081632653,-388
15.106042416966787,-403
15.110044017607043,-325
15.1140456182473,-238
15.118047218887556,-121
15.122048819527812,85
15.126050420168069,387
15.130052020808323,733
15.13405362144858,1033
15.138055222088836,991
15.142056822729092,534
15.146058423369348,29
15.150060024009605,-292
15.154061624649861,-495
15.158063225290118,-670
15.162064825930372,-796
15.166066426570628,-845
15.170068027210885,-800
15.174069627851141,-693
15.178071228491397,-548
15.182072829131654,-410
15.18607442977191,-343
15.190076030412165,-128
15.194077631052421,-38
15.198079231692677,25
15.202080832332934,61
15.20608243297319,98
15.210084033613446,130
15.214085634253703,134
15.218087234893957,127
15.222088835534214,129
15.22609043617447,142
15.230092036814726,161
15.234093637454983,205
15.238095238095239,271
15.242096838735495,333
15.246098439375752,386
15.250100040016006,409
15.254101640656263,397
15.258103241296519,362
15.262104841936775,300
15.266106442577032,256
15.270108043217288,261
15.274109643857544,293
15.278111244497799,295
15.282112845138055,256
15.286114445778312,227
15.290116046418568,244
15.294117647058824,239
15.29811924769908,220
15.302120848339337,213
15.306122448979593,214
15.310124049619848,185
15.314125650260104,152
15.31812725090036,140
15.322128851540617,163
15.326130452180873,187
15.33013205282113,180
15.334133653461386,116
15.33813525410164,22
15.342136854741897,-31
15.346138455382153,-61
15.35014005602241,-82
15.354141656662666,-100
15.358143257302922,-103
15.362144857943179,-120
15.366146458583433,-161
15.37014805922369,-200
15.374149659863946,-249
15.378151260504202,-327
15.382152861144458,-383
15.386154461784715,-409
15.390156062424971,-384
15.394157663065227,-345
15.398159263705482,-292
15.402160864345738,-296
15.406162464985995,-358
15.410164065626251,-409
15.414165666266507,-426
15.418167266906764,-354
15.42216886754702,-171
15.426170468187275,88
15.430172068827531,388
15.434173669467787,698
15.438175270108044,871
15.4421768707483,639
15.446178471388556,157
15.450180072028813,-310
15.454181672669069,-647
15.458183273309324,-871
15.46218487394958,-1001
15.466186474589836,-1024
15.470188075230093,-946
15.474189675870349,-797
15.478191276510605,-646
15.482192877150862,-478
15.486194477791116,-315
15.490196078431373,-199
15.494197679071629,-116
15.498199279711885,-56
15.502200880352142,-1
15.506202480992398,52
15.510204081632654,95
15.51420568227291,120
15.518207282913165,143
15.522208883553422,177
15.526210484193678,213
15.530212084833934,244
15.53421368547419,266
15.538215286114447,278
15.542216886754703,273
15.546218487394958,286
15.550220088035214,322
15.55422168867547,352
15.558223289315727,393
15.562224889955983,419
15.56622649059624,427
15.570228091236496,409
15.57422969187675,377
15.578231292517007,354
15.582232893157263,336
15.58623449379752,302
15.590236094437776,263
15.594237695078032,246
15.598239295718288,210
15.602240896358545,182
15.6062424969988,183
15.610244097639056,178
15.614245698279312,170
15.618247298919568,161
15.622248899559825,164
15.626250500200081,206
15.630252100840337,252
15.634253701480592,256
15.638255302120848,246
15.642256902761105,250
15.646258503401361,219
15.650260104041617,158
15.654261704681874,90
15.65826330532213,15
15.662264905962386,-7
15.666266506602641,5
15.670268107242897,-36
15.674269707883154,-130
15.67827130852341,-211
15.682272909163666,-250
15.686274509803923,-271
15.690276110444179,-272
15.694277711084434,-258
15.69827931172469,-248
15.702280912364946,-261
15.706282513005203,-262
15.710284113645459,-268
15.714285714285715,-305
15.718287314925972,-319
15.722288915566228,-286
15.726290516206483,-161
15.730292116846739,67
15.734293717486995,376
15.738295318127252,729
15.742296918767508,1023
15.746298519407764,986
15.75030012004802,504
15.754301720688275,-41
15.758303321328532,-433
15.762304921968788,-739
15.766306522609044,-988
15.7703081232493,-1115
15.774309723889557,-1137
15.778311324529813,-1094
15.782312925170068,-952
15.786314525810324,-722
15.79031612645058,-501
15.794317727090837,-364
15.798319327731093,-301
15.80232092837135,-240
15.806322529011606,-162
15.810324129651862,-91
15.814325730292117,-38
15.818327330932373,-3
15.82232893157263,1
15.826330532212886,-11
15.830332132853142,-3
15.834333733493398,51
15.838335334133655,124
15.84233693477391,154
15.846338535414166,113
15.850340136054422,114
15.854341736694678,175
15.858343337334935,262
15.862344937975191,311
15.866346538615447,316
15.870348139255704,311
15.874349739895958,285
15.878351340536215,243
15.882352941176471,214
15.886354541816727,208
15.890356142456984,208
15.89435774309724,180
15.898359343737496,154
15.902360944377751,138
15.906362545018007,123
15.910364145658264,124
15.91436574629852,123
15.918367346938776,132
15.922368947579033,130
15.926370548219289,134
15.930372148859544,108
15.9343737494998,123
15.938375350140056,184
15.942376950780313,225
15.946378551420569,205
15.950380152060825,189
15.954381752701082,197
15.958383353341338,169
15.962384953981593,165
15.966386554621849,99
15.970388155262105,28
15.974389755902362,18
15.978391356542618,-18
15.982392957182874,-98
15.98639455782313,-129
15.990396158463385,-150
15.994397759103641,-151
15.998399359743898,-149
16.002400960384154,-185
16.00640256102441,-198
16.010404161664667,-158
16.01440576230492,-184
16.01840736294518,-225
16.022408963585434,-236
16.026410564225692,-180
16.030412164865947,-35
16.0344137655062,148
16.03841536614646,371
16.042416966786714,661
16.046418567426972,965
16.050420168067227,1068
16.054421768707485,699
16.05842336934774,134
16.062424969987998,-336
16.066426570628252,-622
16.070428171268507,-784
16.074429771908765,-900
16.07843137254902,-982
16.082432973189277,-984
16.086434573829532,-908
16.09043617446979,-776
16.094437775110045,-625
16.0984393757503,-473
16.102440976390557,-324
16.106442577030812,-184
16.11044417767107,-88
16.114445778311325,-27
16.118447378951583,33
16.122448979591837,81
16.126450580232092,132
16.13045218087235,166
16.134453781512605,160
16.138455382152863,140
16.142456982793117,149
16.146458583433375,186
16.15046018407363,233
16.154461784713884,244
16.158463385354143,262
16.162464985994397,306
16.166466586634655,311
16.17046818727491,268
16.174469787915168,231
16.178471388555423,240
16.18247298919568,284
16.186474589835935,327
16.19047619047619,373
16.194477791116448,373
16.198479391756702,337
16.20248099239696,273
16.206482593037215,222
16.210484193677473,222
16.214485794317728,228
16.218487394957982,196
16.22248899559824,116
16.226490596238495,61
16.230492196878753,61
16.234493797519008,77
16.238495398159266,111
16.24249699879952,152
16.246498599439775,174
16.250500200080033,178
16.254501800720288,142
16.258503401360546,67
16.2625050020008,-8
16.26650660264106,-48
16.270508203281313,-45
16.274509803921568,-40
16.278511404561826,-42
16.28251300520208,-81
16.28651460584234,-147
16.290516206482593,-193
16.29451780712285,-235
16.298519407763106,-278
16.30252100840336,-299
16.30652260904362,-287
16.310524209683873,-239
16.31452581032413,-212
16.318527410964386,-224
16.322529011604644,-282
16.3265306122449,-352
16.330532212885156,-387
16.33453381352541,-366
16.338535414165666,-248
16.342537014805924,-35
16.34653861544618,258
16.350540216086436,595
16.35454181672669,900
16.35854341736695,862
16.362545018007204,399
16.366546618647458,-144
16.370548219287716,-547
16.37454981992797,-809
16.37855142056823,-977
16.382553021208484,-1080
16.38655462184874,-1140
16.390556222488996,-1118
16.39455782312925,-1033
16.39855942376951,-629
16.402561024409763,-430
16.40656262505002,-279
16.410564225690276,-183
16.414565826330534,-120
16.41856742697079,-87
16.422569027611043,-77
16.4265706282513,-52
16.430572228891556,-7
16.434573829531814,45
16.43857543017207,85
16.442577030812327,112
16.44657863145258,133
16.450580232092836,156
16.454581832733094,170
16.45858343337335,158
16.462585034013607,148
16.46658663465386,199
16.47058823529412,265
16.474589835934374,309
16.478591436574632,282
16.482593037214887,234
16.48659463785514,263
16.4905962384954,285
16.494597839135654,279
16.498599439775912,244
16.502601040416167,245
16.506602641056425,256
16.51060424169668,238
16.514605842336934,205
16.518607442977192,206
16.522609043617447,222
16.526610644257705,214
16.53061224489796,230
16.534613845538217,241
16.538615446178472,214
16.542617046818727,187
16.546618647458985,181
16.55062024809924,175
16.554621848739497,166
16.558623449379752,151
16.56262505002001,150
16.566626650660265,166
16.57062825130052,170
16.574629851940777,148
16.578631452581032,102
16.58263305322129,71
16.586634653861545,40
16.590636254501803,5
16.594637855142057,-32
16.598639455782312,-69
16.60264105642257,-97
16.606642657062824,-121
16.610644257703083,-154
16.614645858343337,-174
16.618647458983595,-168
16.62264905962385,-192
16.626650660264108,-245
16.630652260904363,-254
16.634653861544617,-181
16.638655462184875,-23
16.64265706282513,227
16.646658663465388,555
16.650660264105642,897
16.6546618647459,1092
16.658663465386155,830
16.66266506602641,257
16.666666666666668,-248
16.670668267306922,-598
16.67466986794718,-813
16.678671468587435,-939
16.682673069227693,-964
16.686674669867948,-901
16.690676270508202,-779
16.69467787114846,-643
16.698679471788715,-513
16.702681072428973,-357
16.706682673069228,-197
16.710684273709486,-78
16.71468587434974,-4
16.718687474989995,37
16.722689075630253,85
16.726690676270508,139
16.730692276910766,164
16.73469387755102,177
16.73869547819128,184
16.742697078831533,197
16.74669867947179,197
16.750700280112046,172
16.7547018807523,146
16.75870348139256,190
16.762705082032813,277
16.76670668267307,350
16.770708283313326,394
16.774709883953584,432
16.77871148459384,457
16.782713085234093,496
16.78671468587435,515
16.790716286514606,472
16.794717887154864,426
16.79871948779512,383
16.802721088435376,356
16.80672268907563,318
16.810724289715886,249
16.814725890356144,202
16.818727490996398,180
16.822729091636656,126
16.82673069227691,95
16.83073229291717,93
16.834733893557424,118
16.838735494197678,140
16.842737094837936,148
16.84673869547819,182
16.85074029611845,232
16.854741896758703,223
16.85874349739896,219
16.862745098039216,191
16.86674669867947,102
16.87074829931973,6
16.874749899959983,-61
16.87875150060024,-103
16.882753101240496,-116
16.886754701880754,-154
16.89075630252101,-273
16.894757903161267,-386
16.89875950380152,-439
16.902761104441776,-405
16.906762705082034,-344
16.91076430572229,-297
16.914765906362547,-318
16.9187675070028,-378
16.92276910764306,-382
16.926770708283314,-300
16.93077230892357,-240
16.934773909563827,-192
16.93877551020408,-112
16.94277711084434,80
16.946778711484594,342
16.950780312124852,662
16.954781912765107,969
16.95878351340536,1144
16.96278511404562,1005
16.966786714685874,508
16.970788315326132,7
16.974789915966387,-362
16.978791516606645,-592
16.9827931172469,-719
16.986794717887154,-835
16.990796318527412,-911
16.994797919167667,-897
16.998799519807925,-795
17.00280112044818,-679
17.006802721088437,-547
17.010804321728692,-431
17.014805922368947,-320
17.018807523009205,-254
17.02280912364946,-177
17.026810724289717,-68
17.030812324929972,-3
17.03481392557023,81
17.038815526210485,100
17.042817126850743,8
17.046818727490997,-33
17.050820328131252,18
17.05482192877151,79
17.058823529411764,134
17.062825130052023,154
17.066826730692277,162
17.070828331332535,188
17.07482993197279,214
17.078831532613044,257
17.082833133253303,297
17.086834733893557,339
17.090836334533815,353
17.09483793517407,353
17.098839535814328,340
17.102841136454582,326
17.106842737094837,326
17.110844337735095,329
17.11484593837535,325
17.118847539015608,320
17.122849139655862,310
17.12685074029612,313
17.130852340936375,305
17.13485394157663,273
17.138855542216888,257
17.142857142857142,259
17.1468587434974,247
17.150860344137655,242
17.154861944777913,232
17.158863545418168,199
17.162865146058422,178
17.16686674669868,160
17.170868347338935,94
17.174869947979193,34
17.178871548619448,26
17.182873149259706,30
17.18687474989996,35
17.19087635054022,41
17.194877951180473,47
17.198879551820728,39
17.202881152460986,17
17.20688275310124,4
17.2108843537415,23
17.214885954381753,19
17.21888755502201,-9
17.222889155662266,-20
17.22689075630252,-20
17.23089235694278,-79
17.234893957583033,-189
17.23889555822329,-250
17.242897158863546,-202
17.246898759503804,-37
17.25090036014406,225
17.254901960784313,549
17.25890356142457,878
17.262905162064826,1172
17.266906762705084,1204
17.270908363345338,774
17.274909963985596,204
17.27891156462585,-270
17.282913165266105,-614
17.286914765906364,-880
17.290916366546618,-1045
17.294917967186876,-1126
17.29891956782713,-1132
17.30292116846739,-1019
17.306922769107643,-825
17.3109243697479,-642
17.314925970388156,-514
17.31892757102841,-402
17.32292917166867,-346
17.326930772308923,-336
17.33093237294918,-331
17.334933973589436,-268
17.338935574229694,-167
17.34293717486995,-60
17.346938775510203,7
17.35094037615046,58
17.354941976790716,109
17.358943577430974,142
17.36294517807123,199
17.366946778711487,252
17.37094837935174,270
17.374949979991996,249
17.378951580632254,247
17.38295318127251,290
17.386954781912767,338
17.39095638255302,345
17.39495798319328,309
17.398959583833534,273
17.40296118447379,253
17.406962785114047,250
17.4109643857543,263
17.41496598639456,277
17.418967587034814,297
17.422969187675072,285
17.426970788315327,251
17.43097238895558,197
17.43497398959584,153
17.438975590236094,117
17.442977190876352,113
17.446978791516607,133
17.450980392156865,131
17.45498199279712,99
17.458983593437377,107
17.462985194077632,182
17.466986794717887,244
17.470988395358145,218
17.4749899959984,160
17.478991596638657,96
17.482993197278912,46
17.48699479791917,16
17.490996398559425,-8
17.49499799919968,-71
17.498999599839937,-163
17.503001200480192,-219
17.50700280112045,-229
17.511004401760704,-224
17.515006002400963,-257
17.519007603041217,-312
17.52300920368147,-343
17.52701080432173,-325
17.531012404961984,-293
17.535014005602243,-310
17.539015606242497,-354
17.543017206882755,-380
17.54701880752301,-376
17.551020408163264,-298
17.555022008803522,-103
17.559023609443777,182
17.563025210084035,499
17.56702681072429,777
17.571028411364548,755
17.575030012004802,380
17.579031612645057,-79
17.583033213285315,-456
17.58703481392557,-724
17.591036414565828,-919
17.595038015206082,-1013
17.59903961584634,-1035
17.603041216486595,-979
17.607042817126853,-856
17.611044417767108,-706
17.615046018407362,-521
17.61904761904762,-352
17.623049219687875,-224
17.627050820328133,-145
17.631052420968388,-122
17.635054021608646,-114
17.6390556222489,-84
17.643057222889155,-51
17.647058823529413,-23
17.651060424169668,-10
17.655062024809926,4
17.65906362545018,34
17.66306522609044,72
17.667066826730693,105
17.671068427370948,128
17.675070028011206,164
17.67907162865146,199
17.68307322929172,233
17.687074829931973,276
17.69107643057223,326
17.695078031212486,358
17.69907963185274,349
17.703081232493,347
17.707082833133253,375
17.71108443377351,373
17.715086034413766,310
17.719087635054024,235
17.723089235694278,157
17.727090836334533,84
17.73109243697479,51
17.735094037615045,57
17.739095638255304,81
17.743097238895558,84
17.747098839535816,63
17.75110044017607,63
17.75510204081633,120
17.759103641456583,189
17.763105242096838,213
17.767106842737096,215
17.77110844337735,213
17.77511004401761,175
17.779111644657863,97
17.78311324529812,32
17.787114845938376,55
17.79111644657863,59
17.79511804721889,11
17.799119647859143,-77
17.8031212484994,-163
17.807122849139656,-272
17.811124449779914,-398
17.81512605042017,-512
17.819127651060423,-559
17.82312925170068,-513
17.827130852340936,-477
17.831132452981194,-452
17.83513405362145,-405
17.839135654261707,-424
17.84313725490196,-486
17.847138855542216,-506
17.851140456182474,-450
17.85514205682273,-294
17.859143657462987,-40
17.86314525810324,279
17.8671468587435,594
17.871148459383754,846
17.875150060024012,779
17.879151660664267,353
17.88315326130452,-123
17.88715486194478,-494
17.891156462585034,-738
17.895158063225292,-902
17.899159663865547,-1001
17.903161264505805,-1001
17.90716286514606,-907
17.911164465786314,-758
17.915166066426572,-571
17.919167667066827,-368
17.923169267707085,-203
17.92717086834734,-72
17.931172468987597,25
17.935174069627852,95
17.939175670268106,127
17.943177270908365,155
17.94717887154862,199
17.951180472188877,230
17.955182072829132,247
17.95918367346939,264
17.963185274109644,279
17.9671868747499,284
17.971188475390157,280
17.97519007603041,309
17.97919167667067,345
17.983193277310924,394
17.987194877951183,417
17.991196478591437,386
17.99519807923169,333
17.99919967987195,269
18.003201280512204,234
18.007202881152462,233
18.011204481792717,244
18.015206082432975,238
18.01920768307323,201
18.023209283713488,170
18.027210884353742,143
18.031212484993997,117
18.035214085634255,75
18.03921568627451,28
18.043217286914768,25
18.047218887555022,50
18.05122048819528,77
18.055222088835535,103
18.05922368947579,109
18.063225290116048,133
18.067226890756302,174
18.07122849139656,195
18.075230092036815,190
18.079231692677073,163
18.083233293317328,137
18.087234893957582,107
18.09123649459784,60
18.095238095238095,-12
18.099239695878353,-96
18.103241296518608,-147
18.107242897158866,-160
18.11124449779912,-176
18.115246098439375,-245
18.119247699079633,-332
18.123249299719888,-382
18.127250900360146,-369
18.1312525010004,-364
18.13525410164066,-360
18.139255702280913,-366
18.143257302921167,-385
18.147258903561426,-393
18.15126050420168,-387
18.15526210484194,-381
18.159263705482193,-292
18.16326530612245,-69
18.167266906762706,277
18.171268507402964,658
18.175270108043218,997
18.179271708683473,1190
18.18327330932373,972
18.187274909963985,469
18.191276510604244,28
18.195278111244498,-272
18.199279711884756,-520
18.20328131252501,-732
18.207282913165265,-864
18.211284513805523,-880
18.215286114445778,-793
18.219287715086036,-645
18.22328931572629,-487
18.22729091636655,-315
18.231292517006803,-162
18.235294117647058,-48
18.239295718287316,36
18.24329731892757,76
18.24729891956783,104
18.251300520208083,127
18.25530212084834,127
18.259303721488596,135
18.26330532212885,158
18.26730692276911,164
18.271308523409363,136
18.27531012404962,101
18.279311724689876,52
18.283313325330134,5
18.28731492597039,35
18.291316526610643,122
18.2953181272509,174
18.299319727891156,221
18.303321328531414,245
18.30732292917167,267
18.311324529811927,238
18.31532613045218,179
18.31932773109244,147
18.323329331732694,169
18.32733093237295,163
18.331332533013207,114
18.33533413365346,74
18.33933573429372,69
18.343337334933974,64
18.347338935574232,71
18.351340536214487,61
18.35534213685474,48
18.359343737495,0
18.363345338135254,-38
18.367346938775512,-11
18.371348539415767,72
18.375350140056025,164
18.37935174069628,225
18.383353341336534,222
18.387354941976792,191
18.391356542617046,155
18.395358143257305,101
18.39935974389756,35
18.403361344537817,-10
18.407362945178072,-47
18.411364545818326,-102
18.415366146458584,-177
18.41936774709884,-242
18.423369347739097,-272
18.42737094837935,-260
18.43137254901961,-247
18.435374149659864,-229
18.439375750300123,-224
18.443377350940377,-230
18.44737895158063,-236
18.45138055222089,-248
18.455382152861144,-260
18.459383753501402,-231
18.463385354141657,-133
18.467386954781915,31
18.47138855542217,261
18.475390156062424,525
18.479391756702682,778
18.483393357342937,866
18.487394957983195,561
18.49139655862345,47
18.495398159263708,-394
18.499399759903962,-694
18.503401360544217,-892
18.507402961184475,-1018
18.51140456182473,-1049
18.515406162464988,-1001
18.519407763105242,-897
18.5234093637455,-748
18.527410964385755,-588
18.53141256502601,-437
18.535414165666268,-308
18.539415766306522,-209
18.54341736694678,-118
18.547418967587035,-36
18.551420568227293,25
18.555422168867548,54
18.559423769507802,76
18.56342537014806,103
18.567426970788315,138
18.571428571428573,167
18.575430172068828,193
18.579431772709086,213
18.58343337334934,243
18.5874349739896,299
18.591436574629853,362
18.595438175270107,429
18.599439775910366,475
18.60344137655062,498
18.60744297719088,527
18.611444577831133,544
18.61544617847139,548
18.619447779111646,521
18.6234493797519,469
18.627450980392158,420
18.631452581032413,367
18.63545418167267,334
18.639455782312925,314
18.643457382953184,302
18.647458983593438,275
18.651460584233693,220
18.65546218487395,158
18.659463785514205,154
18.663465386154463,222
18.667466986794718,287
18.671468587434976,322
18.67547018807523,329
18.679471788715485,340
18.683473389355743,362
18.687474989995998,345
18.691476590636256,284
18.69547819127651,227
18.69947979191677,152
18.703481392557023,120
18.707482993197278,117
18.711484593837536,77
18.71548619447779,43
18.71948779511805,-11
18.723489395758303,-66
18.72749099639856,-103
18.731492597038816,-128
18.735494197679074,-159
18.73949579831933,-177
18.743497398959583,-165
18.74749899959984,-163
18.751500600240096,-157
18.755502200880354,-178
18.75950380152061,-202
18.763505402160867,-217
18.76750700280112,-150
18.771508603441376,33
18.775510204081634,346
18.77951180472189,653
18.783513405362147,973
18.7875150060024,1104
18.79151660664266,807
18.795518207282914,282
18.79951980792317,-177
18.803521408563427,-471
18.80752300920368,-694
18.81152460984394,-878
18.815526210484194,-992
18.819527811124452,-1025
18.823529411764707,-960
18.82753101240496,-786
18.83153261304522,-591
18.835534213685474,-434
18.839535814325732,-308
18.843537414965986,-199
18.847539015606245,-108
18.8515406162465,-55
18.855542216886754,-8
18.859543817527012,19
18.863545418167266,58
18.867547018807524,103
18.87154861944778,146
18.875550220088037,156
18.87955182072829,76
18.88355342136855,88
18.887555022008804,189
18.89155662264906,280
18.895558223289317,337
18.89955982392957,289
18.90356142456983,273
18.907563025210084,322
18.911564625850342,378
18.915566226490597,347
18.91956782713085,284
18.92356942777111,325
18.927571028411364,341
18.931572629051622,266
18.935574229691877,226
18.939575830332135,303
18.94357743097239,266
18.947579031612644,179
18.951580632252902,110
18.955582232893157,111
18.959583833533415,118
18.96358543417367,70
18.967587034813928,55
18.971588635454182,112
18.975590236094437,158
18.979591836734695,123
18.98359343737495,121
18.987595038015208,170
18.991596638655462,229
18.99559823929572,249
18.999599839935975,211
19.00360144057623,57
19.007603041216488,79
19.011604641856742,132
19.015606242497,97
19.019607843137255,-7
19.023609443777513,-41
19.027611044417768,-34
19.031612645058026,-95
19.03561424569828,-186
19.039615846338535,-230
19.043617446978793,-243
19.047619047619047,-309
19.051620648259306,-318
19.05562224889956,-320
19.05962384953982,-270
19.063625450180073,-222
19.067627050820327,-254
19.071628651460586,-211
19.07563025210084,41
19.079631852741098,362
19.083633453381353,719
19.08763505402161,1068
19.091636654661865,1306
19.09563825530212,1142
19.099639855942378,681
19.103641456582633,43
19.10764305722289,-533
19.111644657863145,-772
19.115646258503403,-927
19.119647859143658,-1170
19.123649459783913,-1276
19.12765106042417,-1150
19.131652661064425,-962
19.135654261704683,-930
19.139655862344938,-872
19.143657462985196,-692
19.14765906362545,-531
19.15166066426571,-374
19.155662264905963,-273
19.159663865546218,-302
19.163665466186476,-363
19.16766706682673,-251
19.17166866746699,-146
19.175670268107243,-168
19.1796718687475,-164
19.183673469387756,-135
19.18767507002801,-78
19.19167667066827,-29
19.195678271308523,27
19.19967987194878,63
19.203681472589036,76
19.207683073229294,130
19.21168467386955,207
19.215686274509803,250
19.21968787515006,247
19.223689475790316,227
19.227691076430574,215
19.23169267707083,202
19.235694277711087,191
19.23969587835134,184
19.243697478991596,172
19.247699079631854,145
19.25170068027211,99
19.255702280912367,43
19.25970388155262,-8
19.26370548219288,-33
19.267707082833134,-32
19.27170868347339,-16
19.275710284113647,5
19.2797118847539,41
19.28371348539416,74
19.287715086034414,91
19.291716686674672,100
19.295718287314926,110
19.299719887955185,102
19.30372148859544,81
19.307723089235694,53
19.311724689875952,49
19.315726290516206,47
19.319727891156464,21
19.32372949179672,-32
19.327731092436977,-77
19.33173269307723,-137
19.335734293717486,-186
19.339735894357744,-208
19.343737494998,-210
19.347739095638257,-228
19.35174069627851,-251
19.35574229691877,-273
19.359743897559024,-292
19.36374549819928,-316
19.367747098839537,-333
19.37174869947979,-333
19.37575030012005,-318
19.379751900760304,-263
19.383753501400562,-108
19.387755102040817,172
19.39175670268107,548
19.39575830332133,945
19.399759903961584,1194
19.403761504601842,1002
19.407763105242097,474
19.411764705882355,-33
19.41576630652261,-411
19.419767907162864,-692
19.423769507803122,-858
19.427771108443377,-930
19.431772709083635,-922
19.43577430972389,-847
19.439775910364148,-737
19.443777511004402,-619
19.44777911164466,-480
19.451780712284915,-336
19.45578231292517,-194
19.459783913565428,-99
19.463785514205682,-55
19.46778711484594,-27
19.471788715486195,0
19.475790316126453,-2
19.479791916766708,-14
19.483793517406962,4
19.48779511804722,61
19.491796718687475,123
19.495798319327733,170
19.499799919967987,175
19.503801520608246,170
19.5078031212485,193
19.511804721888755,213
19.515806322529013,243
19.519807923169267,284
19.523809523809526,293
19.52781112444978,288
19.531812725090038,299
19.535814325730293,311
19.539815926370547,300
19.543817527010805,287
19.54781912765106,280
19.551820728291318,276
19.555822328931573,242
19.55982392957183,188
19.563825530212085,158
19.56782713085234,138
19.571828731492598,128
19.575830332132853,100
19.57983193277311,61
19.583833533413365,40
19.587835134053623,53
19.591836734693878,79
19.595838335334136,110
19.59983993597439,130
19.603841536614645,141
19.607843137254903,116
19.611844737895158,95
19.615846338535416,66
19.61984793917567,32
19.62384953981593,-28
19.627851140456183,-116
19.631852741096438,-196
19.635854341736696,-246
19.63985594237695,-278
19.64385754301721,-297
19.647859143657463,-273
19.65186074429772,-254
19.655862344937976,-270
19.65986394557823,-262
19.66386554621849,-258
19.667867146858743,-266
19.671868747499,-316
19.675870348139256,-381
19.679871948779514,-382
19.68387354941977,-269
19.687875150060023,-58
19.69187675070028,239
19.695878351340536,578
19.699879951980794,913
19.70388155262105,1065
19.707883153261307,783
19.71188475390156,273
19.71588635454182,-151
19.719887955182074,-441
19.72388955582233,-653
19.727891156462587,-821
19.73189275710284,-891
19.7358943577431,-829
19.739895958383354,-694
19.743897559023612,-525
19.747899159663866,-368
19.75190076030412,-220
19.75590236094438,-104
19.759903961584634,-32
19.763905562224892,19
19.767907162865146,40
19.771908763505404,24
19.77591036414566,14
19.779911964785914,21
19.78391356542617,38
19.787915166066426,67
19.791916766706684,93
19.79591836734694,118
19.799919967987197,176
19.80392156862745,257
19.807923169267706,322
19.811924769907964,340
19.81592637054822,343
19.819927971188477,305
19.82392957182873,311
19.82793117246899,380
19.831932773109244,437
19.8359343737495,426
19.839935974389757,378
19.84393757503001,338
19.84793917567027,315
19.851940776310524,328
19.855942376950782,320
19.859943977591037,277
19.863945578231295,246
19.86794717887155,226
19.871948779511804,207
19.875950380152062,213
19.879951980792317,240
19.883953581432575,250
19.88795518207283,266
19.891956782713088,275
19.895958383353342,284
19.899959983993597,284
19.903961584633855,291
19.90796318527411,253
19.911964785914368,187
19.915966386554622,139
19.91996798719488,97
19.923969587835135,56
19.92797118847539,-22
19.931972789115648,-99
19.935974389755902,-157
19.93997599039616,-210
19.943977591036415,-237
19.947979191676673,-241
19.951980792316927,-264
19.955982392957182,-282
19.95998399359744,-278
19.963985594237695,-260
19.967987194877953,-281
19.971988795518207,-351
19.975990396158466,-443
19.97999199679872,-508
19.983993597438975,-482
19.987995198079233,-329
19.991996798719487,-116
19.995998399359745,131
20.0,412
